Timestamp,Value
1712776066.9401774,61.39039835387285
1712776066.960929,59.47427092953848
1712776066.9926236,57.811831139021486
1712776067.0102146,61.571499649853266
1712776067.0427675,57.22037692098998
1712776067.0618625,55.97642842086854
1712776067.0895586,55.060696566781
1712776067.1108918,55.06893374985995
1712776067.1424608,52.53049624006244
1712776067.1609116,50.42017692505082
1712776067.1871524,52.37076062720593
1712776067.2109118,41.13699010142568
1712776067.238659,46.13269149592782
1712776067.259978,36.06229237497979
1712776067.2888734,33.32661518747791
1712776067.3120596,35.78961198078882
1712776067.3274465,32.47787625554946
1712776067.3610904,23.566665825229066
1712776067.3777456,21.855064518797285
1712776067.410524,17.502106978453256
1712776067.4272673,21.396044637293436
1712776067.4555225,11.671951982753866
1712776067.4777286,7.999716210415276
1712776067.5062518,8.635999037095715
1712776067.5239024,10.934457400479342
1712776067.5571208,20.776395875350573
1712776067.5786355,19.433930175854243
1712776067.6058688,26.2862341857339
1712776067.621497,27.668366683716755
1712776067.6556897,25.275374928944984
1712776067.6769834,25.676876629399167
1712776067.7065659,26.981257436469434
1712776067.7272987,20.32739848862049
1712776067.7591846,17.931216183380016
1712776067.7771459,15.569394765054136
1712776067.809585,15.770864401438967
1712776067.8269997,20.87947848438534
1712776067.8601472,15.324195044388606
1712776067.888032,10.90780977069517
1712776067.9095101,17.46137789046418
1712776067.940258,16.82264293515952
1712776067.95998,22.499262037291576
1712776067.9938574,21.07040681924743
1712776068.0222633,17.046444882386492
1712776068.0409498,25.88762448424118
1712776068.07503,27.047528289532806
1712776068.093374,21.995706598915426
1712776068.1205997,21.591552769810843
1712776068.1397948,24.751224929964074
1712776068.1763902,25.543442248114914
1712776068.209787,29.011953045560347
1712776068.2376294,21.462295372223913
1712776068.259757,22.498276284616054
1712776068.2774978,21.58332206775109
1712776068.3101053,13.940399584605057
1712776068.342944,19.464676165174723
1712776068.3601675,14.774230502717392
1712776068.3938317,8.631895326441128
1712776068.4091573,10.432344815940723
1712776068.4428968,11.472506442503917
1712776068.4730875,10.537078121160556
1712776068.4936628,4.89522330613868
1712776068.5255432,5.2355315797939
1712776068.5439742,8.227771477042022
1712776068.5785656,19.580904629798475
1712776068.602848,17.94456751194236
1712776068.6255422,23.373616004200255
1712776068.6594098,26.255424574329137
1712776068.6786869,17.78000992824251
1712776068.7121575,17.043247425499757
1712776068.7408893,18.648646173674308
1712776068.7792482,12.087924754106863
1712776068.7993715,9.878033307601724
1712776068.8250647,14.17691547531226
1712776068.858614,13.374551106431971
1712776068.8775947,10.808038603726912
1712776068.9091382,13.7254865833944
1712776068.9413393,11.144672575733908
1712776068.9592233,11.041332177743895
1712776068.9923925,8.999016643690696
1712776069.025656,16.907765150164593
1712776069.0429373,8.981762256606995
1712776069.0792942,17.992169219380138
1712776069.1030242,11.477996168106985
1712776069.125601,16.75028366035196
1712776069.1588929,9.475968129857563
1712776069.186879,13.297152397709276
1712776069.212135,14.90239918130612
1712776069.2411659,6.005351577877117
1712776069.2704036,9.354639262454041
1712776069.2947595,5.687944970529863
1712776069.3271878,7.092899065414311
1712776069.3539627,3.7564138241883303
1712776069.3771675,-1.0611646059400233
1712776069.4102688,-3.720961760034628
1712776069.4373617,-2.782555432328973
1712776069.4581742,-9.124813124407972
1712776069.4919574,-1.4846216432939308
1712776069.5116992,0.9301875553844834
1712776069.5413518,1.3953942090157625
1712776069.574291,8.694186102135067
1712776069.5921714,17.000705635888924
1712776069.6246922,20.061853955018194
1712776069.6534595,15.09588432855794
1712776069.6823313,22.30617440199186
1712776069.7092633,23.703589894133053
1712776069.733853,24.66317329938365
1712776069.7659967,21.424055124933936
1712776069.791748,18.360375377478928
1712776069.8161695,26.567550506469487
1712776069.8483734,23.260146096145697
1712776069.8790326,28.29289101150447
1712776069.908862,22.72155303858639
1712776069.9311965,25.385130786868118
1712776069.9581318,36.73371353044281
1712776069.9988692,36.96986024810001
1712776070.0243008,36.30916355303344
1712776070.0551872,40.358418636835864
1712776070.0748005,48.966543797586496
1712776070.1080906,51.17558412111181
1712776070.1374145,51.31004054607563
1712776070.158077,57.94504022258569
1712776070.1907914,52.46548306371086
1712776070.2208412,51.76685060650515
1712776070.2413342,52.11515313544043
1712776070.2746227,54.728978043175225
1712776070.3078997,54.09924859059816
1712776070.338183,51.66573973087522
1712776070.3590708,50.31309361382219
1712776070.391209,57.837474611956594
1712776070.4245338,53.010399840965306
1712776070.4535425,47.65636097292869
1712776070.4734297,52.98986038704976
1712776070.5084677,51.95987217749884
1712776070.5377119,58.43102058509298
1712776070.55953,61.293010289687714
1712776070.5910943,66.78595366804079
1712776070.6244595,75.01389151022195
1712776070.6576216,72.86444412607224
1712776070.685298,78.88010303979786
1712776070.7110739,75.37224495573479
1712776070.7411606,77.94038956889791
1712776070.7742782,72.39133750145656
1712776070.807563,69.91359010510453
1712776070.8269942,68.51330728403029
1712776070.8591628,73.31650481882573
1712776070.8908284,73.7981158723265
1712776070.9241154,69.00129116537742
1712776070.9503038,75.44299472868319
1712776070.9786742,69.9398261737456
1712776071.011637,74.27277245307326
1712776071.0402877,73.79322961246959
1712776071.0633707,77.34987021975516
1712776071.0917702,81.48759508001658
1712776071.1241238,83.10477363248357
1712776071.15979,79.6136993258952
1712776071.1899729,79.59618771945878
1712776071.2128918,75.41066789330236
1712776071.2454536,74.4459938659973
1712776071.278462,70.65668769493602
1712776071.307001,67.18792476449379
1712776071.3397481,66.25248212008732
1712776071.369085,65.22090676831247
1712776071.398928,68.49540366179177
1712776071.428722,64.05711260627831
1712776071.4591384,65.83485279935724
1712776071.4916794,63.73267651113504
1712776071.52451,60.228713841305186
1712776071.5552406,73.31578240184609
1712776071.5853477,71.92361313151929
1712776071.6114676,83.65400964133536
1712776071.6395795,81.31633331165149
1712776071.6765828,87.77084958572338
1712776071.7055955,85.93843060615872
1712776071.7328837,79.19852359448261
1712776071.7602053,78.47263412099208
1712776071.7948525,77.45102024228456
1712776071.8244936,76.56825031653209
1712776071.8519528,84.31301721336348
1712776071.8851125,77.04130608906286
1712776071.9124725,82.45445157056992
1712776071.9450278,86.69699423086999
1712776071.9767044,92.07208573022098
1712776072.010565,89.2240137916769
1712776072.040043,90.09391522643133
1712776072.073066,96.49839175774493
1712776072.1090899,95.81182582202189
1712776072.1362207,99.55893903517342
1712776072.168126,97.49995752726286
1712776072.1990135,93.65263809455946
1712776072.2230842,95.4600465880651
1712776072.2587857,90.3033827704165
1712776072.288544,89.20491959466128
1712776072.317692,87.09645506576078
1712776072.350308,91.64471743011836
1712776072.373533,90.21781768210843
1712776072.412013,78.40525921387881
1712776072.440415,74.98645892009725
1712776072.4721553,79.24275969804921
1712776072.506038,74.82565779627724
1712776072.5373015,77.74509160593375
1712776072.5666485,84.69259802693912
1712776072.5937955,91.0311900146508
1712776072.6219501,87.09295510616818
1712776072.6573381,91.58336387002966
1712776072.6906872,84.10968019146826
1712776072.7166748,88.35418946667771
1712776072.745183,88.15028491100402
1712776072.7783616,77.96890119370666
1712776072.8052404,81.55707816437138
1712776072.8391347,74.61679104419758
1712776072.8724651,72.91654605105656
1712776072.9065564,69.15142349477998
1712776072.935353,70.43433751740614
1712776072.9602892,71.017020352101
1712776072.9931347,65.63946630932192
1712776073.031871,71.65070073152204
1712776073.063073,66.94457538020323
1712776073.095115,60.996089376942386
1712776073.1270123,59.84529174026842
1712776073.157717,62.24541362329127
1712776073.190228,62.907158097590965
1712776073.221053,59.22288541648307
1712776073.257249,54.00265363426823
1712776073.2876577,43.26917530154514
1712776073.3207662,46.935223493140164
1712776073.354342,39.23368797916946
1712776073.3870203,35.37199641318025
1712776073.4110894,35.11322534016964
1712776073.4536467,22.941067944416545
1712776073.48212,19.07892035569079
1712776073.5128098,18.941798348203644
1712776073.555992,27.540057422483848
1712776073.588282,34.8518785699561
1712776073.6217337,33.19937907248077
1712776073.657188,37.21839512929756
1712776073.6889257,35.517425972911475
1712776073.7186735,34.966872883881855
1712776073.7425413,27.497640580122876
1712776073.7860193,29.240816312290956
1712776073.8185837,26.092286940509847
1712776073.8501294,25.46768854942638
1712776073.8796904,23.117925947862208
1712776073.917383,24.36276514394874
1712776073.9504714,31.192926421537297
1712776073.9826427,23.659914862825875
1712776074.0195658,31.93041191277339
1712776074.054242,32.86287686996532
1712776074.08713,30.545633979595394
1712776074.113003,33.15304738991882
1712776074.1517982,29.30227207168128
1712776074.184803,31.260609151309495
1712776074.2155147,35.62535722088104
1712776074.2473552,28.032809949845213
1712776074.2754576,24.45985776497558
1712776074.3082922,28.21735011441237
1712776074.3388796,23.870787551686178
1712776074.3710022,17.664628044847042
1712776074.4053607,11.952211821720041
1712776074.4393442,16.205165424153947
1712776074.4713852,14.893908174553008
1712776074.50528,14.752146980717685
1712776074.5376303,17.38273917642183
1712776074.5746624,20.629712543902315
1712776074.607508,19.76168085915583
1712776074.635788,23.79252714904179
1712776074.6641693,29.355798172491383
1712776074.703923,20.336657786146386
1712776074.7343524,17.322485529716367
1712776074.771819,16.464498516695134
1712776074.8064156,13.923877081083736
1712776074.8385158,13.126756729926132
1712776074.8716536,11.622234870590429
1712776074.9039924,9.271162017161451
1712776074.9373615,5.842524406906282
1712776074.9712434,11.768644565719338
1712776075.0110118,10.505260452173037
1712776075.0491602,12.416097805610526
1712776075.087155,14.428078088256015
1712776075.1194437,10.104153073974844
1712776075.1472278,14.301457268421824
1712776075.1864882,9.346929495875823
1712776075.2216733,7.357759063423846
1712776075.2532837,4.632299496961941
1712776075.2874806,3.6973879047407427
1712776075.3196244,3.7033800295142196
1712776075.354183,-0.2973753490701032
1712776075.3880541,-10.987972488756492
1712776075.4210267,-13.686299548385934
1712776075.4541812,-10.44443545000226
1712776075.4867516,-8.84393382505815
1712776075.531858,-8.270353152882874
1712776075.5651116,1.3702238018564472
1712776075.5986497,2.2621724229588587
1712776075.6365848,8.208075140092003
1712776075.6698613,10.56564949875775
1712776075.702111,16.859486622809666
1712776075.7355752,12.14306635514498
1712776075.7698638,9.950937346127123
1712776075.8031285,16.78763180303615
1712776075.8311865,10.073014408634316
1712776075.868711,16.029016697432628
1712776075.9030087,16.306129014292818
1712776075.936376,21.02006044486947
1712776075.9696798,27.495325204589278
1712776076.0039432,31.725407700420167
1712776076.0374737,36.668058126733605
1712776076.0695727,31.57971240755661
1712776076.1028779,37.79662641849126
1712776076.1361666,40.24056845203717
1712776076.171504,44.46686515737436
1712776076.208881,38.71438474573481
1712776076.239293,45.60200304889634
1712776076.2720811,38.660963124447825
1712776076.303474,46.92237500076746
1712776076.3359482,45.79116993803315
1712776076.3724928,40.334701057388365
1712776076.4041,36.40731548300488
1712776076.4439082,43.532347612684745
1712776076.4765415,36.318742224055796
1712776076.50713,37.96894192299399
1712776076.548957,51.0616122123129
1712776076.5785213,52.962456731708805
1712776076.6187415,57.702754285046574
1712776076.6524389,67.22110213747426
1712776076.6906915,68.8826148693153
1712776076.7253668,66.36815665672383
1712776076.7599027,66.80627761510104
1712776076.7904575,60.95201426768028
1712776076.835029,60.6930170538211
1712776076.8860488,64.23418258834366
1712776076.9458637,63.79256426536679
1712776076.9861972,63.210594200361285
1712776077.0194523,62.338200123309676
1712776077.0562696,73.27435909217641
1712776077.0890274,74.37635013117216
1712776077.131648,69.60596457061136
1712776077.1711774,73.97383826456154
1712776077.2032619,68.7958155375555
1712776077.2422957,71.33173205636083
1712776077.275338,69.56823437553653
1712776077.304768,64.05113576078875
1712776077.34491,62.893628929112914
1712776077.3770502,63.564833202553594
1712776077.4150832,55.364922702382515
1712776077.4519675,51.56034352813106
1712776077.4881876,59.510940319369084
1712776077.5189536,56.598907011561195
1712776077.5618677,70.54315921093021
1712776077.5908167,67.1436826068281
1712776077.6301742,79.54234224982126
1712776077.6717594,79.12179318642336
1712776077.7131898,83.37497216763956
1712776077.7476547,83.54602947268108
1712776077.7907364,79.9101820326369
1712776077.8180802,76.6593936014381
1712776077.8652782,79.45316229374453
1712776077.9009936,85.60873098472045
1712776077.9356487,82.96461266831805
1712776077.9678648,83.30854099479063
1712776078.0076468,87.00508558944132
1712776078.0456295,91.98165647817594
1712776078.0839992,93.14396887980939
1712776078.1219528,99.12634254660614
1712776078.1510763,103.78930944442801
1712776078.1903074,94.08965747814281
1712776078.226382,97.78254303990825
1712776078.2656176,99.48716324078939
1712776078.2990377,93.13543326533409
1712776078.3269649,94.2192069138189
1712776078.3700242,85.90294436725421
1712776078.4022772,90.04908392952352
1712776078.4407485,87.47314454840439
1712776078.4743106,85.387071773307
1712776078.5168922,83.59416892084252
1712776078.5507824,90.31246439407069
1712776078.5855153,93.42763904426764
1712776078.6240904,101.4953462527837
1712776078.654355,95.15458289330414
1712776078.697486,90.7270887705121
1712776078.7326524,95.53706209289896
1712776078.772813,83.56797035839759
1712776078.8070946,86.67795716367765
1712776078.8504884,77.15582882072685
1712776078.8892882,78.87774151955297
1712776078.9217288,77.9696367584281
1712776078.962775,73.05768176700106
1712776079.0032778,73.02131452323508
1712776079.0341468,80.35370509723123
1712776079.0745828,73.2897145034509
1712776079.1060221,79.11926711222782
1712776079.145706,72.94183352179769
1712776079.1842992,72.61474785149944
1712776079.22733,62.44471167507265
1712776079.2703724,62.15237235422048
1712776079.3081791,55.198713067707125
1712776079.3385942,49.9670964870376
1712776079.3829267,43.211201763597714
1712776079.419236,41.0826010757174
1712776079.462617,38.200619694269136
1712776079.495995,37.94762339373981
1712776079.533689,35.22570511485859
1712776079.5793629,39.77377381937156
1712776079.615913,43.41096765012066
1712776079.650096,48.486051809480735
1712776079.694082,46.08412980171842
1712776079.7327023,48.526447405172235
1712776079.7729542,43.49506382101712
1712776079.810819,40.09980993307729
1712776079.8491075,35.92550936727908
1712776079.8829281,39.40656207264965
1712776079.919871,38.192255304332555
1712776079.961281,34.74323625393501
1712776079.998926,35.18992190951781
1712776080.0489106,40.72651243992279
1712776080.083126,43.94639605091386
1712776080.1311839,45.95242872573251
1712776080.1662993,46.12672885278506
1712776080.2008648,45.47608974558162
1712776080.2444391,40.841894890881825
1712776080.2819471,38.23119503732748
1712776080.3203359,28.554523365490738
1712776080.3642015,28.545013166164118
1712776080.4033132,21.215327502139893
1712776080.4461005,22.33421332965729
1712776080.4780738,14.952357787430367
1712776080.521935,22.63197866863196
1712776080.5600145,23.22431234117809
1712776080.602734,28.124844229976688
1712776080.647319,35.08308943908703
1712776080.685654,29.01524388330399
1712776080.7333205,22.713330191075595
1712776080.7744405,25.159982809053737
1712776080.8150284,20.067255476314074
1712776080.8524601,16.899470529213815
1712776080.8977163,15.475940568321906
1712776080.932057,15.962847330038878
1712776080.965269,16.028057134793524
1712776081.0057979,7.307378074010867
1712776081.047568,14.015101710116486
1712776081.093459,15.02877936685708
1712776081.132631,9.762865760396952
1712776081.167759,8.966762114223178
1712776081.2164502,4.346782640347757
1712776081.2615244,6.14445645459819
1712776081.3052382,2.246932220280966
1712776081.3467379,-1.8428693185698712
1712776081.3894136,-4.398035681067323
1712776081.4299953,-10.515154663181326
1712776081.469675,-11.56082884692302
1712776081.5134754,-8.669525388282942
1712776081.551754,-10.522096874697127
1712776081.6004105,-2.7150682165543163
1712776081.6321578,7.589002096654063
1712776081.6783106,6.756693150990051
1712776081.7229097,8.73649035140012
1712776081.758984,3.305138238897758
1712776081.7978814,10.307592764818885
1712776081.8463657,5.331074711707925
1712776081.8839602,3.284591702941159
1712776081.9278948,7.1767078373684425
1712776081.9610364,17.00143345868518
1712776082.0059214,24.378912299331734
1712776082.0471478,22.147421970085542
1712776082.092056,24.83973103902552
1712776082.1237555,29.653513563647067
1712776082.1710749,28.55167029629672
1712776082.21359,38.051013324330675
1712776082.2474651,28.63693426013362
1712776082.2925034,35.790993522458294
1712776082.3265362,30.397009760235868
1712776082.3678455,33.945276090016264
1712776082.411704,28.304747948204938
1712776082.4474876,28.69614048226449
1712776082.4852173,33.17233428285331
1712776082.535998,35.32368653394099
1712776082.577886,45.68130232415306
1712776082.6217692,50.52448265986613
1712776082.6636572,52.293448717654485
1712776082.705545,50.63648111302772
1712776082.7474341,53.168671377724436
1712776082.7853317,49.14327050238401
1712776082.825228,53.25819312946131
1712776082.8671148,47.263819421681134
1712776082.905998,47.71140602300269
1712776082.942978,55.56486270704523
1712776082.982882,56.6965617642471
1712776083.0217605,55.51752031169732
1712776083.0606623,57.51317429405132
1712776083.0995202,61.47496088521667
1712776083.1404483,64.07607068612816
1712776083.1813395,57.468201574297915
1712776083.2214715,59.88992547177571
1712776083.2608242,54.91056667446029
1712776083.3017144,52.07305107544993
1712776083.3415685,54.70612703240768
1712776083.3811219,55.430064053109106
1712776083.4200494,47.578523445056135
1712776083.463111,42.25515010803324
1712776083.5050333,52.5979611707604
1712776083.5470045,51.84587437943371
1712776083.5869336,59.30329568702289
1712776083.6267834,66.23928122238283
1712776083.6685975,69.88317245831611
1712776083.7113087,71.34416107297052
1712776083.7522953,78.24107398696503
1712776083.794727,68.883981041073
1712776083.8391025,75.02513741681169
1712776083.8800805,76.35561737504129
1712776083.9219706,80.54450136658264
1712776083.961191,84.01615052921946
1712776084.001085,89.26466489741776
1712776084.0490277,88.81263263915069
1712776084.0919125,95.02174897640059
1712776084.1357963,92.42013742773081
1712776084.1756878,98.37076721623733
1712776084.2165432,92.87928271996512
1712776084.259428,96.95031001088688
1712776084.3010278,96.19585431500178
1712776084.3399231,93.66371169949241
1712776084.3833504,91.91814157867874
1712776084.4281983,89.35269952041718
1712776084.470151,82.34042333517264
1712776084.5140347,84.08462561370372
1712776084.5569205,89.6076371727354
1712776084.600803,100.10814653595395
1712776084.6428192,102.37068284281722
1712776084.6867034,97.26506275370633
1712776084.728594,97.84067019846921
1712776084.772809,97.03827300068782
1712776084.8166864,91.12057936029561
1712776084.8592215,88.18876104306722
1712776084.9001076,83.32808366149435
1712776084.940992,80.91934748665695
1712776084.9908736,80.87054605451837
1712776085.032716,85.2424009431064
1712776085.075683,88.04865550642383
1712776085.1195633,83.47633383717704
1712776085.1629882,82.12161994820833
1712776085.2078393,80.3690310769033
1712776085.2527168,66.42045335278345
1712776085.2964096,64.30219259209682
1712776085.3393297,57.36362805633969
1712776085.3831773,51.613087960609505
1712776085.4270601,53.139557079113644
1712776085.4709427,47.53612379857594
1712776085.5138283,44.76116489863369
1712776085.5587084,48.08116947777823
1712776085.6026316,59.39186850796601
1712776085.6465092,57.61185077985974
1712776085.6894026,60.79976677328143
1712776085.7302861,51.48049237644511
1712776085.7721686,48.26578806012522
1712776085.815063,50.120671385182824
1712776085.856941,49.138558707686414
1712776085.8998837,48.569605364869226
1712776085.9407804,52.34598361661178
1712776085.982677,53.17490984627827
1712776086.0235274,51.50673608110233
1712776086.0704422,58.48241787127047
1712776086.1142862,58.40756403141885
1712776086.158169,53.861189193620966
1712776086.2020817,49.998713623200246
1712776086.2459712,49.023311564284484
1712776086.290985,43.76334610252918
1712776086.3348641,40.54325453821209
1712776086.3767426,37.83004678306442
1712776086.4176087,28.682892964071474
1712776086.4635324,29.03291629937207
1712776086.507405,26.53658601978362
1712776086.55028,33.204978438039156
1712776086.60025,32.57435383229269
1712776086.645224,42.235593424696994
1712776086.6891356,32.82830271391862
1712776086.733238,36.24298622478816
1712776086.7779403,27.655364326312352
1712776086.8218207,19.44832934825723
1712776086.8657098,17.23877094974823
1712776086.914576,16.70356880933269
1712776086.961411,19.067843466879673
1712776087.0048413,13.571709073714329
1712776087.048724,12.270465457516767
1712776087.090612,12.108546263749489
1712776087.1325479,15.041420094036727
1712776087.175333,12.305346414836349
1712776087.2242935,8.177364168596167
1712776087.269709,2.8410138385347086
1712776087.314588,-2.65966299314477
1712776087.3654172,-3.2133731981023512
1712776087.4102979,-9.214292567398434
1712776087.4536648,-13.889676048520412
1712776087.4975827,-19.12763783769298
1712776087.5434217,-11.938664628539648
1712776087.5894914,-3.317837979311909
1712776087.634575,5.282096543132688
1712776087.6853359,3.182781322934227
1712776087.7331781,-0.03142662151925535
1712776087.7765663,4.926466811742896
1712776087.818565,-1.8330875485797846
1712776087.8648643,6.842280957877932
1712776087.9133558,1.8595709809217214
1712776087.9568622,11.871296832198936
1712776088.0015762,16.27571475925306
1712776088.0470357,20.976153763893652
1712776088.091915,27.097841009137035
1712776088.1336803,28.86975442226723
1712776088.1831489,26.5164347728957
1712776088.2264187,28.652943790428598
1712776088.2750347,22.091178568490093
1712776088.3220816,29.0509324595059
1712776088.3684428,27.039095824046235
1712776088.4119115,23.61740823365504
1712776088.4541323,20.492795608346416
1712776088.4962807,15.235250952284993
1712776088.5445116,24.9615640398577
1712776088.5922334,40.50935483391741
1712776088.6374104,38.3082975060986
1712776088.6879466,47.61319242914142
1712776088.7339444,38.899924113141644
1712776088.7814138,40.76444180215522
1712776088.8240132,35.7650117490955
1712776088.8656285,38.60243407287734
1712776088.913762,40.58160042351099
1712776088.9577913,39.92391203308072
1712776089.002691,39.91805766261249
1712776089.0423179,43.7133494160724
1712776089.0842242,45.528489059369306
1712776089.1305227,49.87208958705589
1712776089.1757655,46.49405326824204
1712776089.2196696,43.17128682225136
1712776089.2690122,40.81216938450389
1712776089.3095322,43.02943859365747
1712776089.3516376,39.654634400036194
1712776089.393632,40.90934263879547
1712776089.4407225,39.82140493052289
1712776089.4827778,35.48249915684421
1712776089.528371,43.410293399942745
1712776089.5700133,47.70599739364703
1712776089.6163366,59.01987017406914
1712776089.6594603,62.41307932059795
1712776089.6992192,61.666485383407036
1712776089.7487848,63.8076012297996
1712776089.792341,65.56791912897853
1712776089.839274,69.48098589513496
1712776089.8855946,67.99888086567665
1712776089.930069,71.30350907272928
1712776089.9742408,74.88627773283956
1712776090.0168574,77.5868522640386
1712776090.0636373,91.0607694489141
1712776090.1080916,91.39052723422463
1712776090.1556406,89.41060082629687
1712776090.1984098,90.35741055216016
1712776090.243665,94.20041667518804
1712776090.285589,87.12176164796414
1712776090.3272386,91.26073694419074
1712776090.3684182,86.5039101813879
1712776090.4116683,81.68739859787053
1712776090.4569905,84.74156904435719
1712776090.49832,79.55526150758392
1712776090.548189,88.43082495874592
1712776090.590167,99.99738610297288
1712776090.6304402,104.61870839820183
1712776090.6754534,105.79710242848351
1712776090.7239249,100.45696777202687
1712776090.7654803,98.71150512528942
1712776090.8061903,89.40622276173143
1712776090.8508494,86.84122589278795
1712776090.8935447,88.81952824634261
1712776090.9430187,90.25064904665547
1712776090.9883604,92.41207912275583
1712776091.0310016,86.01443456169562
1712776091.0747957,87.92535508343634
1712776091.1225393,83.80650393915553
1712776091.1725373,80.88724106900419
1712776091.2087545,79.08482992123213
1712776091.2658286,75.28606950176973
1712776091.3103163,70.1519955467043
1712776091.3588188,66.59841700841234
1712776091.4019294,65.58811886128596
1712776091.4500496,55.80650377632962
1712776091.4973667,54.8183335138539
1712776091.5388756,54.69014318582445
1712776091.5883367,64.86743908615371
1712776091.6380644,68.24009549737517
1712776091.6878595,67.12535220816125
1712776091.7259986,62.73761970323868
1712776091.7817388,59.472365103052404
1712776091.8219817,64.06884463446876
1712776091.8559313,54.160925616838185
1712776091.9003007,56.051822842822865
1712776091.9507556,61.667991931878184
1712776091.999674,64.09166017380218
1712776092.0428865,59.371569431976674
1712776092.0885148,67.3237578471516
1712776092.1269367,64.93919083668756
1712776092.1727839,67.79748288881026
1712776092.2271492,62.233037917893284
1712776092.271097,56.031513475600754
1712776092.3270075,57.72693485197301
1712776092.3688672,51.18032366714337
1712776092.405081,46.00585691572378
1712776092.4525993,39.86274623438477
1712776092.5042315,36.67461196809745
1712776092.5395606,38.62327120328926
1712776092.5951872,44.35335225707403
1712776092.640564,50.65574087522187
1712776092.6883583,47.84829109238518
1712776092.728613,41.22881755798224
1712776092.7786262,38.08246312965206
1712776092.8302352,31.658749661323398
1712776092.8710632,28.863380334066246
1712776092.9173195,23.763298091065515
1712776092.954324,23.00096960882427
1712776093.0093422,24.733331531062934
1712776093.0596192,20.598599485955347
1712776093.118464,25.320030487059825
1712776093.1633732,15.65190728482701
1712776093.212213,11.864691770853437
1712776093.2602262,8.212071934418976
1712776093.3047197,4.372749899271714
1712776093.3505971,1.1944871923071023
1712776093.3964822,0.06914815635103189
1712776093.4393644,-14.077903641552677
1712776093.4829981,-9.618863173736452
1712776093.5287037,-9.60628191433665
1712776093.5775716,-4.2125378731230825
1712776093.6244466,2.5817986830061113
1712776093.6693263,3.0892223139854362
1712776093.717236,3.1834162862049578
1712776093.765112,-1.7477426718128717
1712776093.8137343,3.460021795057905
1712776093.857429,2.0233046971671795
1712776093.9013143,-2.231363358123931
1712776093.9481854,4.740591546940394
1712776093.9921417,8.345161275594025
1712776094.0420053,9.973870162415984
1712776094.088882,22.755417128480406
1712776094.1303287,18.826581391515266
1712776094.1772041,23.00569229976528
1712776094.2206674,17.596111404592616
1712776094.2645464,20.292954823053744
1712776094.3089943,13.387621799351967
1712776094.3540335,16.24547050742774
1712776094.399294,16.140077989268114
1712776094.4452603,8.099518403599498
1712776094.4902415,7.444816720204523
1712776094.535128,12.795123414426723
1712776094.5809615,21.520441403749103
1712776094.6258414,31.099587937356013
1712776094.6709366,35.04877533332784
1712776094.716814,32.720350738987754
1712776094.7627234,32.801189739365675
1712776094.8085692,29.991632955029157
1712776094.8524826,23.68854348297696
1712776094.8953745,25.24553788597665
1712776094.9392595,28.01037151759495
1712776094.9811072,35.067796722412446
1712776095.0289793,35.004047473236014
1712776095.0768895,41.67416818872237
1712776095.122768,41.91742841219584
1712776095.1646538,40.28085775531502
1712776095.2065413,37.78657373145168
1712776095.2484243,31.533156087926308
1712776095.296301,37.365306010880204
1712776095.3411868,34.62449901005098
1712776095.3844516,33.71581234421105
1712776095.4299123,24.67498313870076
1712776095.4736414,25.7575651461255
1712776095.5155342,24.326481209825747
1712776095.5584142,33.68146722894619
1712776095.6028666,43.77635476582126
1712776095.6462893,47.520743631879945
1712776095.6916132,54.07137623334265
1712776095.7392015,54.22138993221703
1712776095.7860708,54.63924005618222
1712776095.8289542,59.14073905717178
1712776095.873837,60.37905015954402
1712776095.9187162,63.69441026474499
1712776095.9645956,71.36304922265185
1712776096.0124662,70.89094977911458
1712776096.0617704,78.57903958531814
1712776096.1086454,86.2828859187445
1712776096.1535249,82.06823094463576
1712776096.1984682,90.58198151365195
1712776096.2443197,82.46347697424079
1712776096.2893379,81.20976695357201
1712776096.3382835,81.08933017115085
1712776096.385158,86.92967501315613
1712776096.4300318,83.14899163974474
1712776096.4759047,76.47643582236225
1712776096.5207865,79.1099830822663
1712776096.5656407,91.07636988718441
1712776096.6125462,96.79058922358544
1712776096.6604183,99.4736177285065
1712776096.7069626,96.23213857409729
1712776096.7518413,93.8075362899902
1712776096.798721,92.39702198622501
1712776096.844596,89.95390582812983
1712776096.888479,90.87775487697431
1712776096.9314137,85.63623592046272
1712776096.9802463,93.10525488715798
1712776097.0252173,92.8529447317845
1712776097.0731227,89.35629553525868
1712776097.1191428,88.64332577568668
1712776097.1620264,89.52198472646539
1712776097.2041466,84.75600631435638
1712776097.246,77.54597800879735
1712776097.2939045,81.34343151547657
1712776097.339167,68.80257435523968
1712776097.3820462,66.98062680225367
1712776097.4245613,63.472881913086105
1712776097.4694915,56.52078006713041
1712776097.514473,61.77165943325945
1712776097.559644,71.0848142069427
1712776097.6072147,78.67605770735291
1712776097.6529822,76.56683949709969
1712776097.6972978,75.94428406115934
1712776097.7441783,72.19396926461656
1712776097.7896364,71.80584277196256
1712776097.8354769,70.37860588565007
1712776097.8823476,64.66435652286907
1712776097.928261,64.25238774127544
1712776097.9761326,68.12182143645671
1712776098.021975,68.83978112462275
1712776098.0778677,77.71355734602277
1712776098.126141,74.1006523552286
1712776098.1720152,73.98736789577531
1712776098.2217038,70.88927367386333
1712776098.266894,73.62831997423078
1712776098.309462,66.46561651680062
1712776098.351319,64.2549773425744
1712776098.3953917,61.8895087734587
1712776098.4372697,48.29013437592558
1712776098.4784927,53.14032913406749
1712776098.5264375,47.78973941786417
1712776098.5725925,56.24110229299436
1712776098.6173012,63.69714906790158
1712776098.663142,58.25282360888396
1712776098.707821,59.89670211746299
1712776098.7587154,50.23901287819089
1712776098.8207989,45.829371997321786
1712776098.8838596,31.99371752751167
1712776098.939119,38.87209510228794
1712776098.991575,35.077552598695426
1712776099.0436275,29.532642303615045
1712776099.1067827,28.420992158149332
1712776099.1646283,26.095215027731065
1712776099.2189186,18.21950984290269
1712776099.2687843,19.413053483772437
1712776099.3193545,13.707999418779123
1712776099.369222,7.547408363990916
1712776099.4176002,-2.798541348752754
1712776099.4654727,-3.2154933159041903
1712776099.5146353,-10.40080155886006
1712776099.5625086,1.486917840630067
1712776099.6159067,10.029600447674808
1712776099.6617837,4.529191689528409
1712776099.7082548,4.770238548387983
1712776099.756127,9.522144125724056
1712776099.8066442,6.782327194114545
1712776099.853959,2.283633008624652
1712776099.9004304,5.937111282977948
1712776099.9493022,10.500920658410589
1712776099.995577,8.69073646236409
1712776100.0440097,13.856286658865812
1712776100.096737,18.624637109638872
1712776100.147601,24.051948865023725
1712776100.195473,15.090512203333878
1712776100.2414923,15.15428220793537
1712776100.2853756,12.046437858229488
1712776100.3327742,15.986768961120621
1712776100.380122,13.637836318664897
1712776100.4250014,5.861220206452394
1712776100.467887,9.200262677906196
1712776100.511806,6.139667611129219
1712776100.5586805,15.208905455190118
1712776100.6075134,21.489657914882034
1712776100.6542945,31.88786498748265
1712776100.7011743,26.802236051792143
1712776100.749998,21.79423913743677
1712776100.7979026,19.349807278452786
1712776100.8457797,21.826558901821002
1712776100.8926582,23.308631248233564
1712776100.936535,24.67005735338321
1712776100.9784248,19.027183983267687
1712776101.0213096,29.608717493564555
1712776101.0681887,28.273450430483674
1712776101.1150582,29.488335729563488
1712776101.159902,28.638410832916136
1712776101.2157896,21.461177196557784
1712776101.2636645,28.10425809550925
1712776101.3091817,19.60811747904048
1712776101.3530588,22.185402771266407
1712776101.402025,15.171998266053972
1712776101.4494033,13.61990476174493
1712776101.4933417,16.77962033086675
1712776101.541263,24.35999093590926
1712776101.5868115,30.189477394524662
1712776101.6342876,36.318630790148994
1712776101.6821609,39.10243039908865
1712776101.729077,40.292514620988804
1712776101.7766428,46.188846962436095
1712776101.827797,41.87798871815848
1712776101.8736787,45.62007902815718
1712776101.920517,47.52859251768349
1712776101.9673917,52.67089732455974
1712776102.0122716,57.40143824786089
1712776102.0584028,64.62609923513143
1712776102.1097016,76.56627050423586
1712776102.1545796,76.03038192450964
1712776102.196669,75.05654575033715
1712776102.2383707,81.72421362026023
1712776102.2870374,74.52186541180448
1712776102.3329163,75.17000497836827
1712776102.3787947,76.40612175740176
1712776102.4266665,72.99352576252997
1712776102.4744983,71.63084949611468
1712776102.5185604,79.78620171651485
1712776102.5644386,79.13753881895906
1712776102.6124222,86.91922582156162
1712776102.6593442,90.54697812461764
1712776102.705208,91.02586682744864
1712776102.747981,91.30583652002247
1712776102.795851,84.18868941302436
1712776102.845003,83.50614593022979
1712776102.8908663,88.34978528324515
1712776102.9383335,90.41035943642113
1712776102.9832232,84.4594687918389
1712776103.0329707,92.72936362530272
1712776103.079637,94.41641211403272
1712776103.1235783,86.84734392592529
1712776103.1665032,86.9019385321055
1712776103.2133744,83.85429952382346
1712776103.2612116,82.2399676417017
1712776103.3081217,78.59612856508468
1712776103.3536222,72.31470110281911
1712776103.406483,65.52318679103827
1712776103.4533575,65.69034431871323
1712776103.4952452,64.81061911652402
1712776103.5456848,71.0060773509634
1712776103.5935566,82.07394288289096
1712776103.6424274,80.11430910983609
1712776103.6883054,80.64400629746135
1712776103.73092,78.60739624922282
1712776103.7728097,72.78674966709299
1712776103.816842,74.32913259577441
1712776103.8675687,72.64395401050082
1712776103.915475,76.92114753858631
1712776103.9653175,76.16727659038865
1712776104.0142107,82.34925378517254
1712776104.0632303,81.64667137665178
1712776104.1101055,83.98930975430528
1712776104.1570163,86.76410401578401
1712776104.203893,86.51682786573562
1712776104.247774,77.75877996514785
1712776104.2906582,79.85740221012907
1712776104.3321452,69.01728476403333
1712776104.3790078,66.52536369371356
1712776104.426889,64.51228912492516
1712776104.470773,64.83142628988217
1712776104.5126588,56.90586493170106
1712776104.5566094,67.83268375583887
1712776104.608367,71.9296835581213
1712776104.6542442,69.03198877806642
1712776104.7004561,63.62314010526426
1712776104.7472942,63.89128570737235
1712776104.79221,52.107108210078906
1712776104.846595,49.882075868634416
1712776104.8963983,42.761645115939984
1712776104.9432783,45.6733680938017
1712776104.9891574,49.92249573340451
1712776105.0369928,48.83193835542296
1712776105.0838978,43.41939275086363
1712776105.1316013,41.24001510045814
1712776105.1884105,38.1007744612965
1712776105.236282,29.883193326613757
1712776105.2825925,21.80306968069799
1712776105.324047,16.239699767935022
1712776105.366931,12.769681498174574
1712776105.4117699,5.776549552269893
1712776105.4563868,0.30225044603228746
1712776105.4982746,-0.7915553427333428
1712776105.5436,3.6356286270478666
1712776105.59296,8.12307984459823
1712776105.6399488,20.93769000439378
1712776105.68567,10.90402852197885
1712776105.727776,17.411384776814533
1712776105.7698195,12.012694715980482
1712776105.8127604,11.868339870440645
1712776105.8617678,3.1557080027636175
1712776105.907685,5.008930961651228
1712776105.9524987,12.516789144581052
1712776105.9964216,15.92266119849551
1712776106.044067,13.4172387795111
1712776106.0940776,24.482789800786602
1712776106.1389568,19.954611272379964
1712776106.1848361,23.452675044860005
1712776106.2287264,18.19343440525061
1712776106.2746043,16.212915751830163
1712776106.3204794,17.049091429217377
1712776106.366917,10.328507199926197
1712776106.411937,12.58051455363097
1712776106.4618194,5.650006139145555
1712776106.5080786,6.904112874961651
1712776106.5525708,14.95441269466966
1712776106.599718,21.280759769262126
1712776106.6485097,26.31398976582377
1712776106.6973703,24.887305796268716
1712776106.7432563,14.416444813557938
1712776106.7851465,13.130937077290202
1712776106.8271627,15.366217281233038
1712776106.870285,14.715889706791128
1712776106.9172468,16.16687372141663
1712776106.9671204,10.202675808651778
1712776107.0152793,16.60953262837623
1712776107.0613399,15.643994547361508
1712776107.1061966,24.35817461387894
1712776107.1490386,20.025241531429216
1712776107.192155,18.720653187003098
1712776107.2350018,20.490205327671376
1712776107.2811031,13.836626696958742
1712776107.3404863,11.532181158452321
1712776107.3882914,8.319358428937292
1712776107.4374723,5.691419932166671
1712776107.4843829,7.676723737271681
1712776107.531041,9.97344509766761
1712776107.5799363,21.44182521091453
1712776107.6271577,31.745535323370333
1712776107.6720278,32.19356174004787
1712776107.7209435,36.6999302473773
1712776107.7681956,31.789601498184847
1712776107.8161073,34.01878124546802
1712776107.8608692,30.220937652380787
1712776107.9077072,36.42739263134249
1712776107.9545815,39.72967691557839
1712776108.0016205,51.69162816489496
1712776108.0486388,59.685063059089394
1712776108.10022,59.90289652874135
1712776108.1471107,68.23247803403066
1712776108.192977,64.71028160045852
1712776108.2369995,70.63358296528583
1712776108.2807462,67.67597650268435
1712776108.3246334,64.33911176101185
1712776108.3675125,67.76914951293512
1712776108.4166417,60.832723022238625
1712776108.4635243,58.92392996764775
1712776108.5114083,63.23993356899155
1712776108.558271,72.64120865713585
1712776108.606155,84.96827921024153
1712776108.6500962,87.70976599272286
1712776108.6929789,87.60629788696966
1712776108.7346282,84.99226886112052
1712776108.7778125,80.13084116939424
1712776108.8203967,76.28648439269627
1712776108.8642793,80.07977709227364
1712776108.9101608,81.89130670707947
1712776108.9579897,85.72108114595807
1712776109.003893,85.33780251629447
1712776109.0489693,82.43927240768453
1712776109.091891,87.20224624544817
1712776109.1348457,88.59558775604935
1712776109.1828456,87.36901550710009
1712776109.2301166,80.87409697743105
1712776109.2840488,73.856418310397
1712776109.352865,70.52913896300734
1712776109.4005961,64.61244937232956
1712776109.4504268,66.28762393514373
1712776109.4963388,62.593701966232416
1712776109.5412154,72.4185551910078
1712776109.5881011,74.84697861328829
1712776109.6329756,81.98990767870373
1712776109.67586,83.11683808621203
1712776109.7187438,81.1096057737879
1712776109.7606325,83.1557729690215
1712776109.8051593,83.10325288672642
1712776109.8490045,78.81727827796968
1712776109.897874,80.18788848704763
1712776109.9447484,83.0876586660522
1712776109.9926202,87.55218430601374
1712776110.0395336,87.31376798896038
1712776110.0874467,96.26574615683515
1712776110.136317,95.6693183114758
1712776110.181196,93.54656492343257
1712776110.2245834,90.61139811169265
1712776110.2664714,82.80355368388093
1712776110.3102825,79.90856981035883
1712776110.353394,82.44785375495786
1712776110.400042,72.91157104249481
1712776110.4469173,75.84741381959215
1712776110.493792,66.41982373313442
1712776110.538673,74.97928342260883
1712776110.5835502,77.26283035623513
1712776110.6305895,79.4737919530424
1712776110.6764996,80.67188469481788
1712776110.7303245,80.08237785987738
1712776110.777199,72.29361488636248
1712776110.8241093,64.74246979339001
1712776110.8729787,62.097377181495524
1712776110.9220004,59.83254094670644
1712776110.9767923,56.0241887335312
1712776111.0245743,59.930418542513785
1712776111.070749,58.96852067379743
1712776111.118287,53.335071727018864
1712776111.170195,45.3425860101556
1712776111.2160676,42.53167535829569
1712776111.2609398,35.92893045082146
1712776111.3048708,34.801289754825916
1712776111.34785,24.616878349224535
1712776111.3937414,24.151945346607974
1712776111.4356174,19.393232264113962
1712776111.4834821,8.588933085421942
1712776111.531553,12.6161512370894
1712776111.579972,19.43680771749776
1712776111.6294818,28.014868380988666
1712776111.6757476,23.06898523987494
1712776111.7255547,17.589780039482296
1712776111.7724261,19.35126882635972
1712776111.817349,11.224539132737217
1712776111.8672798,10.70650308349991
1712776111.9119651,12.873086442144348
1712776111.959837,20.23347131128144
1712776112.0033045,16.120220311288712
1712776112.0508263,25.79219375678528
1712776112.098648,27.77065540339158
1712776112.144613,23.730468148260645
1712776112.1914852,20.846973237008044
1712776112.235432,27.204257412382752
1712776112.2842996,21.17108711044953
1712776112.3291805,17.588497557654918
1712776112.3720648,13.05265066893265
1712776112.4159489,10.764152272174318
1712776112.4607651,8.869814679022832
1712776112.5076761,3.2492725910405493
1712776112.5537617,7.40395947947699
1712776112.6036317,21.18342932746009
1712776112.6506882,26.438427486940647
1712776112.6985612,20.06261108401835
1712776112.7480159,18.2989009394159
1712776112.7938902,9.187845728386367
1712776112.8407273,11.134491922703347
1712776112.8846495,5.720638581101799
1712776112.929186,12.86113138191699
1712776112.980217,8.967410055294621
1712776113.0255814,8.47265340714091
1712776113.071458,9.524790680174442
1712776113.1173387,12.251752142701323
1712776113.167198,8.201477766093422
1712776113.2160716,14.126218260397838
1712776113.2639601,8.667039097080814
1712776113.3084207,4.144479555384786
1712776113.3528726,2.092789806173416
1712776113.3966467,3.8993972113281394
1712776113.4414613,-5.317682091337483
1712776113.4935741,-0.6117868055684124
1712776113.5475335,1.6109679899206757
1712776113.5983608,11.303991649285035
1712776113.6442811,16.593265670994803
1712776113.6901526,19.481598613908886
1712776113.7356985,25.48894569310001
1712776113.7799208,23.149845577700233
1712776113.8245404,24.131597534743378
1712776113.871288,27.438693501428006
1712776113.917509,29.480233150378396
1712776113.9632037,32.9123150534334
1712776114.0118377,40.32384644909439
1712776114.0587287,47.8913889945704
1712776114.1077726,48.43393223138084
1712776114.1539607,49.630989780014446
1712776114.2001393,57.84993366958861
1712776114.2457743,59.13331405205585
1712776114.291008,52.184790601971855
1712776114.3416166,59.768324955631954
1712776114.392672,54.40692700655924
1712776114.4417365,51.395273869457554
1712776114.487413,48.75429647851513
1712776114.5384393,56.2002536048442
1712776114.586531,71.47965814946467
1712776114.6316085,78.79672512694181
1712776114.6757061,72.18471338339054
1712776114.720668,78.38346553212904
1712776114.769585,69.93563962496751
1712776114.8184476,73.50942198992072
1712776114.8623455,72.68302123934023
1712776114.9052186,67.55660332249579
1712776114.9490998,70.64037812737595
1712776114.9955182,74.27568553881572
1712776115.0423927,80.88086565727615
1712776115.0882702,75.2802329393232
1712776115.1331506,81.15025886692399
1712776115.1780741,76.74800115514329
1712776115.222954,79.1608375000573
1712776115.2698298,76.46646467852739
1712776115.3157394,69.45995535293217
1712776115.3606248,70.41058212622984
1712776115.4055042,64.29404142096458
1712776115.4493842,66.41097218001275
1712776115.4932706,60.09241406034553
1712776115.5381117,63.2367000139311
1712776115.5870602,73.92722455176312
1712776115.6359353,87.01681476634649
1712776115.683818,80.619108141174
1712776115.7296853,81.80806807724711
1712776115.7775197,79.74102532568504
1712776115.8225362,81.36252912482932
1712776115.8674488,82.0500195205235
1712776115.9133255,83.89253571662906
1712776115.9582086,82.99994574788627
1712776116.0030863,92.58623352003228
1712776116.0509276,91.86858857579593
1712776116.0994525,100.43763265333766
1712776116.144392,97.32762460012722
1712776116.1913447,97.26910229277622
1712776116.2392166,96.65810597136483
1712776116.2871225,90.8481023937357
1712776116.334994,84.13648645024215
1712776116.3831587,87.91800733615558
1712776116.4300823,76.78273253173003
1712776116.4769583,80.83950024713414
1712776116.525832,81.85774823800011
1712776116.571704,84.13545243246101
1712776116.6198754,88.5613853124764
1712776116.670253,88.3717618243543
1712776116.7201483,85.82897945650141
1712776116.7670486,78.3096962924272
1712776116.8128715,73.47341521856359
1712776116.8567843,75.03346089739198
1712776116.9039059,72.60678389088467
1712776116.9527402,65.13890415704242
1712776117.001192,66.66603062082984
1712776117.0490944,66.67222465188945
1712776117.0951028,62.93262575231947
1712776117.1419775,63.0920221503266
1712776117.1908467,55.30916436606474
1712776117.2367241,54.96943243415184
1712776117.2821662,47.42753477892003
1712776117.3278167,42.643341863863256
1712776117.3704588,40.39779805927091
1712776117.4234877,29.433101665282003
1712776117.4683678,22.506360379218677
1712776117.5162404,19.756851726372865
1712776117.5700977,28.421507297541574
1712776117.6199946,32.030666895107416
1712776117.6678712,34.71101758108216
1712776117.711774,28.881113484210704
1712776117.7556362,32.66576007727953
1712776117.7984104,25.337650003654943
1712776117.8423297,20.01819227693856
1712776117.8852148,24.283552879974625
1712776117.9282086,29.26044241502558
1712776117.972101,22.07008750799288
1712776118.0149515,33.15117093229844
1712776118.057874,32.57872453679938
1712776118.1087327,33.430782670621106
1712776118.1556015,31.546304925072313
1712776118.2015076,32.491383854409094
1712776118.2495651,25.033101851897385
1712776118.2976449,23.02130076253092
1712776118.3445165,17.20381798794011
1712776118.3913913,14.183416021746172
1712776118.4383035,10.92298321996724
1712776118.482829,10.417398967324594
1712776118.5266747,9.16326720554641
1712776118.5757198,17.588759839462767
1712776118.6278336,19.21549220821994
1712776118.6747072,27.43067035776137
1712776118.7205756,18.64143832669577
1712776118.7694712,20.207506704411465
1712776118.8153486,14.936202458267022
1712776118.8632207,12.870094419912528
1712776118.9096446,8.483788696293276
1712776118.9545245,5.872269310560689
1712776118.9981244,7.35264039042033
1712776119.042958,14.499564495471349
1712776119.0904453,7.752788623420627
1712776119.1375008,9.854579298186042
1712776119.1830003,7.187963318794292
1712776119.2318697,4.081681566319163
1712776119.2767496,1.5318693311313414
1712776119.3241618,-2.393765609240729
1712776119.3720372,-4.258192050244276
1712776119.4159603,-4.009271973391639
1712776119.4578462,-12.233334180125201
1712776119.5034328,-8.989811429047982
1712776119.5493026,-5.538780087569647
1712776119.6021552,10.88247198512558
1712776119.6490266,12.898072570760963
1712776119.6949034,10.742776257114878
1712776119.737793,16.286818388196245
1712776119.7851741,9.591562907298329
1712776119.835508,8.641185144287066
1712776119.8831275,18.534950030139786
1712776119.9273148,15.70841478585854
1712776119.9721947,28.38064751725673
1712776120.016374,33.37023109772457
1712776120.0619545,39.384096877902564
1712776120.1134157,43.09197701450586
1712776120.1612923,43.11268439025078
1712776120.2048342,48.55178079411296
1712776120.2503772,46.046276179492814
1712776120.299504,40.693586869851394
1712776120.3473766,40.23965564138027
1712776120.396071,43.807301128484504
1712776120.4454455,40.39547398594719
1712776120.4913232,46.00181815557878
1712776120.5391965,48.31882301589046
1712776120.5863214,54.13007813138475
1712776120.6351926,61.125871762379035
1712776120.681071,70.20064394917407
1712776120.728946,60.816676555607195
1712776120.77382,66.4122201914633
1712776120.815708,56.30035236044963
1712776120.8595588,57.57505122091151
1712776120.9029474,61.23142670846945
1712776120.9463267,62.09335859498198
1712776120.9882147,61.12189912077124
1712776121.0311012,68.375670877804
1712776121.0819955,74.90562623731685
1712776121.126877,68.06458869676068
1712776121.1737561,72.13878195922078
1712776121.2237992,68.8111177954731
1712776121.2729373,69.08179364030353
1712776121.3193846,65.50687753884894
1712776121.3662605,62.82355456792498
1712776121.415129,54.22039994603677
1712776121.4649956,59.78698846365306
1712776121.5149093,62.97085077910796
1712776121.5637429,66.63871016033808
1712776121.6136112,74.37516211684041
1712776121.6654696,84.07110818286414
1712776121.7143264,81.72940746542312
1712776121.758209,81.73074100552829
1712776121.8021412,83.22998655977158
1712776121.848234,75.48606760344565
1712776121.8953168,83.6525816804154
1712776121.9429557,88.32000898273863
1712776121.9924574,93.41821629964977
1712776122.0378218,95.64780950794169
1712776122.0837739,95.96746790369917
1712776122.1348317,100.46429758807953
1712776122.179847,101.55040828290986
1712776122.22385,96.68403376583352
1712776122.2692432,95.43017456331295
1712776122.3132765,96.60343897465519
1712776122.3579612,88.65978397223931
1712776122.4077044,83.87861444954505
1712776122.4567096,86.44011017805528
1712776122.5028174,84.71483931944695
1712776122.553203,83.87661992842852
1712776122.6027644,95.7954470513984
1712776122.6504169,99.50797328534426
1712776122.694415,97.8562896978476
1712776122.7405028,95.97241310959195
1712776122.7856443,85.60961425612058
1712776122.8309853,84.03858992308014
1712776122.8771002,77.95279589399372
1712776122.926375,78.42707694579194
1712776122.9743423,78.26027716445654
1712776123.0212913,72.85691462634844
1712776123.0676076,78.08607316196112
1712776123.1178305,75.4394057303842
1712776123.1648803,73.81346328724517
1712776123.2086105,67.50942450341435
1712776123.2506652,64.5214293391722
1712776123.2980232,50.986358988771535
1712776123.3450594,49.256113576953595
1712776123.3935256,41.57785600672858
1712776123.4352791,35.82867293276953
1712776123.4842105,33.80169343858118
1712776123.5296195,38.897448709659834
1712776123.578607,46.05909947901217
1712776123.6294837,41.71008938679184
1712776123.6771863,47.603701434002744
1712776123.723671,44.741110138588034
1712776123.7697282,35.70489805316769
1712776123.8124225,37.93266962620907
1712776123.8627498,31.78499557040833
1712776123.909558,39.95321932040752
1712776123.9562943,35.99201721986488
1712776124.002868,42.40251434311954
1712776124.0467253,45.66533399443675
1712776124.092886,42.188033494699994
1712776124.1382394,47.820797318565496
1712776124.1900568,39.169779708359016
1712776124.236048,34.08725951397823
1712776124.2822034,39.22612600709045
1712776124.331512,32.53225934588669
1712776124.3751261,25.6702072638909
1712776124.4220881,23.01560215315471
1712776124.4701784,16.933114818371145
1712776124.5151114,21.65299896298061
1712776124.5607033,20.498103859863427
1712776124.610071,25.21438732955354
1712776124.6542106,27.72600452562132
1712776124.6972802,28.47667400554925
1712776124.7437322,27.61257813766672
1712776124.7938437,16.21575800926834
1712776124.8389063,16.43506711834813
1712776124.886258,14.75375305539375
1712776124.932523,14.241994641857035
1712776124.9739206,6.519905651680538
1712776125.021083,16.267290553216725
1712776125.0652025,9.056513568881975
1712776125.1154938,13.094944772267162
1712776125.1604962,14.29632417939757
1712776125.2111232,2.4949860895015954
1712776125.2547522,-0.6488775197258372
1712776125.2974172,0.569248954856576
1712776125.3481214,-0.3170130302971863
1712776125.3926616,-5.8161070018261904
1712776125.4429796,-14.874204754419935
1712776125.4984365,-14.22392984745518
1712776125.5426767,-4.082866363337535
1712776125.5895228,-4.033569586007817
1712776125.643685,4.350700945867429
1712776125.6906304,4.44707290418121
1712776125.7362008,3.8864649761849392
1712776125.7817082,9.05001397836504
1712776125.8314195,7.2197558351571125
1712776125.8755288,11.001495020202084
1712776125.920665,9.330742316477037
1712776125.9690828,14.770983426719711
1712776126.0172787,21.068272701422078
1712776126.0640385,24.425157847017523
1712776126.113629,31.86381000227611
1712776126.165547,37.26927380110536
1712776126.207456,35.69608551297871
1712776126.2524383,37.71075217447742
1712776126.2996447,29.944233124043798
1712776126.3436468,33.78181645177205
1712776126.3911827,32.84351495017886
1712776126.4357474,25.615171934233217
1712776126.4856637,32.331539804042755
1712776126.5346222,32.950251043043316
1712776126.5816245,49.69890859729641
1712776126.6269526,48.163994376090955
1712776126.6754727,57.306424731727105
1712776126.7235785,51.26809220790023
1712776126.774175,53.46158127325009
1712776126.817935,53.655815427668145
1712776126.8625557,52.63391276942582
1712776126.904841,54.67740473593884
1712776126.9497807,54.41406303917446
1712776126.999102,60.11921773942101
1712776127.0454447,56.757350725079824
1712776127.0976958,56.153780967790226
1712776127.14328,61.17397435963291
1712776127.1859686,56.099407564726945
1712776127.2273943,58.8023595933704
1712776127.2733133,52.9719394494321
1712776127.3169625,58.0821274572732
1712776127.3644009,48.783723013058676
1712776127.4115853,50.737523843277714
1712776127.4581306,42.96606708282761
1712776127.5013916,46.64195742420634
1712776127.5508258,52.60542901351411
1712776127.5957592,66.98729119487506
1712776127.643076,74.82867896238031
1712776127.691965,78.79360687069276
1712776127.7384548,78.76482277483831
1712776127.7884028,72.05322796756461
1712776127.833903,74.67714439504157
1712776127.8857262,75.90349068548755
1712776127.9283078,83.36350417110631
1712776127.9754565,83.78316006156443
1712776128.0183368,92.26579763989265
1712776128.0638142,96.29395216140766
1712776128.1081975,96.38034098724304
1712776128.1558673,94.90655597015122
1712776128.2026947,100.08339547266739
1712776128.2488484,94.04205751158871
1712776128.2953222,93.93503044833568
1712776128.3430216,95.69510687891257
1712776128.3895092,90.4303106424566
1712776128.4353483,85.61658528859647
1712776128.483679,79.77598256419512
1712776128.530712,85.41599229439478
1712776128.5721664,98.35478939383454
1712776128.6237621,102.99606446780096
1712776128.6740859,101.36340656748673
1712776128.7226076,95.66798276109957
1712776128.7684395,90.67721408068465
1712776128.8154342,90.7528233716207
1712776128.8642118,87.72774400787318
1712776128.907449,84.73535536762664
1712776128.9561546,82.46112076121055
1712776129.0002592,80.72754791745957
1712776129.0438466,87.24120052484146
1712776129.0933957,78.93877003436928
1712776129.144527,82.16233639908687
1712776129.200495,73.56416556348015
1712776129.2461896,72.20395804914499
1712776129.2896202,70.17072899893856
1712776129.3435497,60.05563037262334
1712776129.388132,52.36085502766614
1712776129.4280493,44.36178383510676
1712776129.472421,46.507144365130245
1712776129.5188217,42.52701030570844
1712776129.5674396,53.021749241546864
1712776129.616085,57.126853816549385
1712776129.6667228,58.01583345740967
1712776129.7147794,60.11449116120205
1712776129.760698,49.54506017735961
1712776129.8055322,53.06126250019479
1712776129.8574207,48.323447715758704
1712776129.9066212,45.610247260733985
1712776129.9556475,51.9441242867081
1712776130.0007856,47.863906967907496
1712776130.0502918,56.835394070682526
1712776130.093614,56.98912612182834
1712776130.1423304,56.28241353281634
1712776130.1935954,55.52408473249319
1712776130.2395763,47.906677992548225
1712776130.2896254,43.49521254839002
1712776130.3368592,39.07851733847215
1712776130.3824172,34.08022008810451
1712776130.4268372,32.13776649883367
1712776130.4742591,24.157202743826875
1712776130.521458,25.211708503478945
1712776130.5703864,28.611355765138214
1712776130.618534,36.43350755051458
1712776130.6702673,33.9182906877607
1712776130.717967,30.03112050406372
1712776130.7641573,32.4649516753932
1712776130.8081307,20.628483425866282
1712776130.8547692,17.149243212019755
1712776130.9034932,18.349840815665114
1712776130.9440978,16.37905192918756
1712776130.9877293,20.73323560753077
1712776131.03272,18.293183580571206
1712776131.0765643,12.145092546901491
1712776131.1233141,14.815514529146595
1712776131.164939,13.566729046838454
1712776131.211527,10.6041680835811
1712776131.2568655,-0.22472803773417915
1712776131.301081,2.4856794903408623
1712776131.3501475,-3.275501660108965
1712776131.394507,-7.838501064926482
1712776131.4372647,-16.556431109050543
1712776131.4821944,-15.559372002403606
1712776131.527775,-7.616019472580492
1712776131.575158,-7.812533549153242
1712776131.6250033,5.929353625647382
1712776131.6705837,3.6300057500582206
1712776131.7171426,8.25107795351779
1712776131.7666676,6.283261867159142
1712776131.8124042,2.662293558507529
1712776131.8593254,2.768430420172548
1712776131.9071178,0.07514995791175183
1712776131.9538648,8.800155039888605
1712776132.0016434,10.143989303153411
1712776132.0525284,14.215233175078843
1712776132.096999,26.009603745089606
1712776132.1458588,28.313450164435288
1712776132.1939847,28.74080161091365
1712776132.2403805,27.324933551338674
1712776132.2872982,20.27421459778762
1712776132.33709,20.837827578854476
1712776132.380963,22.501151208386027
1712776132.4253669,24.886888603324735
1712776132.4689603,23.290557441117326
1712776132.5190268,19.574113358311134
1712776132.56371,30.887588684885174
1712776132.6131177,36.2769565690887
1712776132.663873,42.27621419006611
1712776132.713099,47.00904969068982
1712776132.7641478,45.78265909272832
1712776132.8119018,37.18819547063333
1712776132.8589077,33.2379165007171
1712776132.9036708,34.35144030821131
1712776132.9510105,38.669188810004655
1712776132.9962482,39.36729348393629
1712776133.0400412,43.44308782342213
1712776133.0855541,49.699452240068865
1712776133.1260712,47.94024504514657
1712776133.1713116,47.051303507474636
1712776133.2147865,49.6697601512313
1712776133.2638452,42.87532335029849
1712776133.3148673,44.84705752541453
1712776133.3644698,43.95742327446485
1712776133.41605,37.37186081461873
1712776133.4625,32.28943770871904
1712776133.5089805,40.693113993004566
1712776133.5561056,50.18702718366051
1712776133.6190484,57.88651413495439
1712776133.6734154,64.13268630442357
1712776133.7187624,61.41643272693247
1712776133.7690017,69.95681422192933
1712776133.8154523,61.97052967507903
1712776133.8625708,69.4805273301387
1712776133.9173667,70.34445304731261
1712776133.9655066,79.84285929367888
1712776134.0168085,77.91611535292938
1712776134.0622256,85.65214527970257
1712776134.1084013,89.59306331694918
1712776134.1580114,90.77369101819438
1712776134.2067728,95.06570984300237
1712776134.2568274,95.18090058668885
1712776134.307265,89.30118907200121
1712776134.3533578,84.86971382751612
1712776134.399145,89.11280367766621
1712776134.448357,83.9065287164311
1712776134.4923964,79.1316467184958
1712776134.5462687,85.58924252867386
1712776134.5938666,101.99543409822905
1712776134.6333506,102.67993113877182
1712776134.6765673,101.38531002455119
1712776134.7271256,102.79061654049116
1712776134.7716746,97.91735635065544
1712776134.822403,86.57655966627182
1712776134.8690867,88.90218288766341
1712776134.9193585,85.06090475381093
1712776134.967735,88.79264732490755
1712776135.0182724,90.76987451387602
1712776135.0630329,90.94324892359515
1712776135.1047754,86.16747908520196
1712776135.1487508,81.8296600842183
1712776135.1880543,79.54104621187464
1712776135.2316477,80.13848904082968
1712776135.2791574,74.01410030578627
1712776135.3268147,65.39169319555985
1712776135.3779922,67.7207997327612
1712776135.419345,61.34172028370911
1712776135.4658952,58.027703924216
1712776135.5067036,55.76113452114754
1712776135.550958,56.864922276771196
1712776135.5994778,67.15657412350869
1712776135.6441112,71.03713404059907
1712776135.6922822,67.93404986628418
1712776135.7389913,66.51688686987471
1712776135.786529,57.78718776527082
1712776135.8353434,59.552558001641984
1712776135.8824496,60.53875518688571
1712776135.9245806,59.464757057250885
1712776135.9708362,60.02398822720226
1712776136.0220835,58.91205490833366
1712776136.066667,61.85563686981963
1712776136.1120014,61.08917174999266
1712776136.1575117,59.74701479019065
1712776136.20825,62.44882722569743
1712776136.2502449,59.24587370299196
1712776136.301089,52.940961166668906
1712776136.3493943,45.97233732813299
1712776136.400494,46.41591951633115
1712776136.4446204,35.7433901508429
1712776136.4945798,40.99292336112802
1712776136.5362287,43.552317885161926
1712776136.5838847,46.93466435892093
1712776136.6326892,49.72175285199347
1712776136.6833482,46.389634096126734
1712776136.731698,44.23213688761783
1712776136.7766209,32.017609058804226
1712776136.8245955,32.36931406376006
1712776136.8703487,24.029385882221757
1712776136.9165745,27.995831466113295
1712776136.9609475,26.604975884656863
1712776137.0065637,20.811094648328364
1712776137.057883,21.636957852929793
1712776137.1002312,20.58932671111052
1712776137.1430063,16.365409878306828
1712776137.1874883,20.501502752946944
1712776137.2321615,10.51572202317833
1712776137.2802117,9.051722723434164
1712776137.3254387,5.18149894300922
1712776137.3768585,0.7720882438519077
1712776137.4246979,-7.791695127374087
1712776137.471331,-15.736244860843831
1712776137.5205224,-10.008824265479296
1712776137.5654626,-6.647358550683945
1712776137.615307,-1.5446321595951105
1712776137.6660042,2.8744285069484814
1712776137.7152693,6.983771784784683
1712776137.7635918,2.209795194796918
1712776137.814719,4.317849327288061
1712776137.8640988,-2.6204519648065556
1712776137.9105809,1.9484099089679119
1712776137.954422,8.232926423737432
1712776138.004346,13.55239408846877
1712776138.0482903,12.490053023018792
1712776138.100415,20.638822503996582
1712776138.1462386,22.937471727530948
1712776138.1938617,25.32624366854876
1712776138.2424915,24.075935965793818
1712776138.2875273,20.896717437304495
1712776138.3349113,15.163990017138698
1712776138.3828309,11.098038014289733
1712776138.4301994,15.447451777273205
1712776138.4718277,8.168616384050157
1712776138.5218635,14.845046294492015
1712776138.568401,20.227582726372518
1712776138.6133602,27.525712707811238
1712776138.6603436,36.9770085465896
1712776138.703942,30.359871204946764
1712776138.7475863,28.669458559936878
1712776138.7920947,26.3559069289179
1712776138.8360543,27.667385499385922
1712776138.88705,32.26571558261274
1712776138.9378827,28.60320155895886
1712776138.983428,28.23683582010746
1712776139.0307508,37.55077259745155
1712776139.0797668,38.46739794243179
1712776139.1236866,39.83897194882868
1712776139.16678,40.19575083472786
1712776139.2260969,40.81788454977254
1712776139.281344,34.21259268645807
1712776139.3263133,30.704547722449828
1712776139.375208,27.471329923879217
1712776139.4259315,24.278494432009296
1712776139.4737616,21.761412894025845
1712776139.5185304,25.91913612229981
1712776139.5687847,41.36755342144361
1712776139.6140614,51.66151289529173
1712776139.662841,49.00234939088888
1712776139.704309,57.22409154332607
1712776139.7531188,56.0507441985028
1712776139.809736,56.73855041756967
1712776139.8592868,60.07455870680885
1712776139.9083338,56.99168478787064
1712776139.9546385,66.87980236282745
1712776140.0005574,72.50265960343089
1712776140.0555632,82.88208151135987
1712776140.1038592,87.34427229177857
1712776140.15493,89.39301991708759
1712776140.201101,90.33169392606291
1712776140.2464125,90.2143893937816
1712776140.2922242,81.74991719265364
1712776140.3464966,85.09960872273311
1712776140.3922758,82.0181723515269
1712776140.4397972,77.60923701590193
1712776140.489568,77.56708169483817
1712776140.5372918,85.54939899671353
1712776140.587425,89.6987273380473
1712776140.6324708,102.65253694239695
1712776140.6778758,102.03000302024816
1712776140.7260883,99.81585570547682
1712776140.7691207,98.64579993321938
1712776140.8184164,92.49128625255013
1712776140.8646877,84.85665502427314
1712776140.9082277,84.65406710773605
1712776140.9615874,90.23329247600485
1712776141.0057878,92.46377350465542
1712776141.0602794,88.31210359791413
1712776141.1101882,95.31226464847259
1712776141.1549292,94.14042940770007
1712776141.1999953,89.23940124178715
1712776141.243374,86.87880803842
1712776141.2987423,73.59995949359316
1712776141.343591,74.95478045788177
1712776141.3925526,71.61290159986748
1712776141.443958,66.29768198029977
1712776141.4942052,58.019759567089935
1712776141.5412908,62.49944003618984
1712776141.5920336,70.372898666679
1712776141.6342485,76.56150204327382
1712776141.6828501,76.51192702709805
1712776141.7381315,73.89898754694347
1712776141.7982574,66.31653904424519
1712776141.8479488,64.10221064679591
1712776141.899803,69.32303144064724
1712776141.946149,70.09104188901054
1712776141.9968715,75.82319650504712
1712776142.0429678,70.40683733933228
1712776142.0924702,73.83098665723628
1712776142.134825,79.08638195896778
1712776142.1838474,71.95698809617369
1712776142.2279785,72.65838310208446
1712776142.275447,67.12449855111979
1712776142.3247936,63.343390629277835
1712776142.3733451,58.76673771964256
1712776142.4189239,49.211416640618616
1712776142.470158,48.86093614138626
1712776142.5171137,51.9069764870506
1712776142.565895,53.01124564009306
1712776142.6170752,55.40424566472274
1712776142.6727383,60.99639571444817
1712776142.724147,49.56036065621566
1712776142.7688217,45.29910443217228
1712776142.8148289,44.32686600321074
1712776142.8579097,35.19703489628865
1712776142.9037375,31.854010273257906
1712776142.9534209,30.774581943287718
1712776143.0009315,33.20543542932892
1712776143.051859,37.69469995986577
1712776143.0938346,35.99578105172834
1712776143.1357875,31.16758289115803
1712776143.1854966,23.93442722058507
1712776143.2319393,20.76179129452217
1712776143.272282,15.104775839917455
1712776143.3278592,9.968829850929929
1712776143.3793492,0.4452078978648988
1712776143.4299424,-0.7497484590740271
1712776143.4858398,-8.853098431810801
1712776143.535836,-3.9857031931389297
1712776143.5832324,-0.3735275655853698
1712776143.6307893,4.5458310479091875
1712776143.6807592,9.500099558572906
1712776143.7265394,9.696590480421674
1712776143.7740355,9.034172376055796
1712776143.8184621,7.529670936476443
1712776143.8691146,7.277048759008446
1712776143.914517,4.188387205905997
1712776143.9671931,10.849773911725029
1712776144.012544,11.557860399665099
1712776144.061276,18.52919389892696
1712776144.1055737,17.118463254918634
1712776144.15801,18.96641862752765
1712776144.2037249,21.220267923720137
1712776144.2501774,19.04127122678473
1712776144.2980523,10.666072961191887
1712776144.3471162,9.275638541389133
1712776144.3926146,6.55028465608193
1712776144.439378,3.879451044119918
1712776144.4883368,2.0221195219595396
1712776144.536855,16.439889615014636
1712776144.5803666,18.54369412059341
1712776144.6309059,29.152506443095717
1712776144.6815305,29.891751783420826
1712776144.7267036,28.319017708825935
1712776144.7679293,18.441216496475555
1712776144.818052,23.306481176185322
1712776144.8695989,22.973230765498265
1712776144.913112,16.22882926896727
1712776144.9639523,23.76891738803837
1712776145.0137954,21.266050812560728
1712776145.0607076,27.92883395723514
1712776145.1053975,33.21855962700765
1712776145.148881,33.64083509055658
1712776145.1946304,29.81046868196079
1712776145.2460225,22.7450278545832
1712776145.2891827,24.38234126191162
1712776145.3329592,18.326183216136187
1712776145.3793375,19.13074689088412
1712776145.4219666,15.655631698067022
1712776145.4751446,16.84714056569009
1712776145.5213468,22.22732387658811
1712776145.568037,27.091477579476752
1712776145.616732,41.44835858069447
1712776145.6665993,46.59879055066227
1712776145.7155147,41.46078055410869
1712776145.7610676,46.49269162272328
1712776145.8134284,41.31430353622246
1712776145.8597908,47.22392205828232
1712776145.9053278,54.39583115391088
1712776145.9534738,53.82522311468257
1712776146.0026126,58.57334639310387
1712776146.049711,66.03309309270219
1712776146.099477,73.72429229676344
1712776146.1492474,73.8646830074743
1712776146.1999428,78.03313558378767
1712776146.245253,75.3732795805713
1712776146.2867785,76.8388549960053
1712776146.3373475,73.04018166100735
1712776146.3826325,80.03244133642384
1712776146.4303076,76.21034238502932
1712776146.4776325,73.72873566120424
1712776146.5235965,71.98427478825582
1712776146.5667024,84.84123715787976
1712776146.6155374,88.84953757359085
1712776146.6650062,99.4251815627126
1712776146.7088535,92.15795624279622
1712776146.7619984,92.0293781009599
1712776146.8073432,83.77666270782703
1712776146.8511255,88.5552847757439
1712776146.9010289,81.11346559201999
1712776146.944319,88.68067998607357
1712776146.9914045,92.61683316924304
1712776147.0374448,89.28518045236572
1712776147.084002,90.80572905795043
1712776147.1313026,87.28111599066852
1712776147.1790845,87.25674285710375
1712776147.2249246,84.92198878742109
1712776147.2691872,76.58339977749839
1712776147.3172383,73.22624847210155
1712776147.3659601,76.26976255252525
1712776147.411012,68.75627523027813
1712776147.4608698,64.97151564189905
1712776147.5041618,67.7953576310884
1712776147.5489838,68.91449072368256
1712776147.5923483,72.03770093510947
1712776147.6398318,85.18251140990233
1712776147.6899931,83.82549344450712
1712776147.7357855,84.21675927150525
1712776147.7832832,72.3956795826392
1712776147.831245,71.72852426040816
1712776147.8797162,73.99380604700818
1712776147.9284024,76.95058682915962
1712776147.9774647,76.66260890600967
1712776148.0236454,81.78957905472292
1712776148.0689824,83.62248716715081
1712776148.1197665,85.2381297742391
1712776148.1688013,81.07675418337355
1712776148.215153,81.44914691570453
1712776148.2573245,76.39422698683035
1712776148.303074,76.60255225154616
1712776148.3513086,67.32075276578801
1712776148.4062378,65.37961379045316
1712776148.457176,62.73144147387979
1712776148.503596,55.92781288207369
1712776148.5521333,64.91707008076001
1712776148.6002636,63.93379000502055
1712776148.6494236,75.15099941103232
1712776148.6935143,66.04920747456794
1712776148.7393863,59.036434642050764
1712776148.7867346,59.44686458098914
1712776148.8332918,54.133991989183386
1712776148.875954,48.14753748462555
1712776148.9213762,50.39313101798307
1712776148.9712024,41.199157185022266
1712776149.015531,42.98842667195191
1712776149.0601685,38.809966451265524
1712776149.1043534,40.98628018012348
1712776149.147624,41.63695033147097
1712776149.191239,37.98976797666929
1712776149.2395635,25.927896791392776
1712776149.288576,25.327443935137246
1712776149.3354712,21.30437590037971
1712776149.378045,9.70871943296801
1712776149.4265656,5.912009380528369
1712776149.4756653,3.6628276317262003
1712776149.5256124,-0.24969406790534698
1712776149.5702405,5.778016738868258
1712776149.615388,10.323670104012567
1712776149.6583917,14.636216115518117
1712776149.7076437,9.935128459337422
1712776149.7548718,7.303151985170087
1712776149.8013184,7.029329633938543
1712776149.8570316,6.2839589728514555
1712776149.9023483,6.726153859513428
1712776149.9507234,11.793426028645628
1712776149.999962,17.59058286270581
1712776150.0507808,20.860250469686108
1712776150.097276,15.766908544024703
1712776150.1520233,22.293535049468613
1712776150.1971369,15.595741703665997
1712776150.2448406,16.280951688801977
1712776150.2880723,17.993259202256276
1712776150.3319588,15.291886408601204
1712776150.376302,15.179349673847629
1712776150.4262228,8.445489965633847
1712776150.4689682,8.527557907823988
1712776150.5167181,4.417896716456786
1712776150.5649755,16.101887403111675
1712776150.6118016,24.97885621175449
1712776150.6593075,19.976170763951266
1712776150.7093196,25.098074916466768
1712776150.7588253,17.04675259727047
1712776150.8059733,11.488026245138968
1712776150.85376,16.871970036101523
1712776150.8978078,16.50468792734397
1712776150.9495735,14.96660043610597
1712776150.9951,12.37430382805042
1712776151.0428417,21.12632801591419
1712776151.0911992,16.600893738784876
1712776151.1409295,22.92179612154461
1712776151.1845822,15.772915012511511
1712776151.230881,19.69562009255064
1712776151.2794452,18.10304843404403
1712776151.3254387,10.36775614059742
1712776151.3740458,4.6927160167439474
1712776151.4218073,10.834063631020555
1712776151.4736118,4.7536360811356
1712776151.5181768,10.809588334543813
1712776151.5658293,20.467349777643747
1712776151.6161456,30.002876882397018
1712776151.6626558,31.68484319347555
1712776151.7138665,34.635775724445395
1712776151.768735,29.98416532763134
1712776151.816659,37.14723732180309
1712776151.8684678,32.33496743740555
1712776151.9176443,44.940886139864496
1712776151.970062,48.44063159342551
1712776152.0150638,50.72412982106501
1712776152.0649874,57.89783235449449
1712776152.111244,63.30767169929684
1712776152.1558604,65.40759049384755
1712776152.2027228,62.28483285441839
1712776152.2507572,69.07801879626722
1712776152.2943745,70.61546665980357
1712776152.3406348,63.072562831428804
1712776152.3856275,70.25451175655692
1712776152.4311845,67.97554715976608
1712776152.4744515,67.53278463838332
1712776152.5230212,69.6747014132033
1712776152.5736253,81.03223818217782
1712776152.6187613,79.54346483248
1712776152.668888,91.4581700115044
1712776152.7182126,86.22114640440847
1712776152.7641788,82.91539861760555
1712776152.8154883,85.89318905974956
1712776152.8601022,75.11269218800197
1712776152.907328,79.29910641153882
1712776152.9511304,78.76127550255742
1712776152.995771,81.1822064749413
1712776153.0409575,87.53969997477392
1712776153.0822499,87.23222524193596
1712776153.1295671,85.42597491191457
1712776153.1707592,89.44106983600138
1712776153.2135878,85.16412681262915
1712776153.2604835,81.91117179083139
1712776153.3057017,73.46794211035215
1712776153.3533568,76.03040806644736
1712776153.402979,69.79536168078074
1712776153.448957,67.28448430274268
1712776153.500484,62.28645898954677
1712776153.5494723,72.61798826582515
1712776153.599639,77.472268223176
1712776153.6416128,83.6240747175319
1712776153.6847155,84.5962221399493
1712776153.731475,82.77380402161397
1712776153.7765467,79.19669475831576
1712776153.8229935,79.21926205274846
1712776153.874144,77.63973909942102
1712776153.9227252,84.0804639699798
1712776153.9675543,80.19883489753911
1712776154.0149267,90.64433216864772
1712776154.0590065,94.93616991225105
1712776154.108942,89.1439410480532
1712776154.157433,90.90254307786707
1712776154.2055655,93.29918115007675
1712776154.2519524,84.33763927793774
1712776154.2979915,86.59281005768894
1712776154.3384957,77.51162326972245
1712776154.384764,78.59627112621968
1712776154.4288788,74.29516759686311
1712776154.4764702,72.86998775258907
1712776154.5208013,65.78218848496643
1712776154.5712094,78.8559158227678
1712776154.6205487,79.47956962161147
1712776154.6674733,78.49054848515796
1712776154.714081,74.93066771860303
1712776154.7579317,73.80703629084371
1712776154.7982666,68.15239913453318
1712776154.8459795,61.224841924071505
1712776154.895669,58.574755554388666
1712776154.9418447,60.089983843666246
1712776154.9897485,57.723577430976825
1712776155.0335307,56.02459395739759
1712776155.0823572,50.93637449864858
1712776155.129494,53.84314178896346
1712776155.1709528,47.52691788530602
1712776155.217534,38.062438752311046
1712776155.2585285,34.89111681010839
1712776155.305414,34.31114383939226
1712776155.351476,24.762045243092217
1712776155.3972037,23.591981856348347
1712776155.438865,13.337018108135073
1712776155.484822,8.542760776932866
1712776155.5328662,13.161582215354175
1712776155.5800912,22.199806828499916
1712776155.6290076,28.215605081442153
1712776155.6745372,27.037119688862873
1712776155.7231169,23.148955143845807
1712776155.771432,20.993227692584338
1712776155.8201003,14.370030835785371
1712776155.8684475,16.427963487517946
1712776155.9158921,16.252109919957228
1712776155.9664047,13.29494252313258
1712776156.0128663,17.960248827599372
1712776156.0648713,26.254314235383394
1712776156.1118803,23.439977094725712
1712776156.1671994,25.773238089665348
1712776156.2149534,22.197995809161664
1712776156.2575443,19.59151732298989
1712776156.3077626,13.2236060746561
1712776156.3546867,16.0449207600089
1712776156.3993719,6.511529935308713
1712776156.4504547,9.746353586513964
1712776156.501535,9.858281748314946
1712776156.549108,13.183006021877151
1712776156.5917425,13.567780901290934
1712776156.6384673,22.33836862998008
1712776156.6858382,21.49812070432047
1712776156.7320945,16.749273863442603
1712776156.7777536,9.844876803407786
1712776156.8253634,7.8517428025167675
1712776156.873358,8.07614561306491
1712776156.9188702,4.3537714559519
1712776156.968093,5.953976511600034
1712776157.0151246,10.852446359617753
1712776157.063107,12.736728454993044
1712776157.1078885,18.2326858077095
1712776157.1566412,11.078508955429513
1712776157.2021089,13.385784438279664
1712776157.2464821,12.143251677460485
1712776157.2916205,4.448005489520084
1712776157.3385892,3.625941337500338
1712776157.3831947,4.469102475819447
1712776157.431325,0.34062516470233106
1712776157.4732692,-3.427357655758449
1712776157.5238771,-3.2292421866683743
1712776157.5686061,8.32140751835983
1712776157.6155343,17.53198216706317
1712776157.664381,20.862397941142255
1712776157.708618,23.99632084210543
1712776157.7538402,18.672541928724193
1712776157.8026803,22.787360053999024
1712776157.852214,22.242532042281038
1712776157.8981643,30.12152894436897
1712776157.953608,28.513480222144153
1712776157.9986544,41.08740541304372
1712776158.0439222,40.11149457724424
1712776158.0943844,45.5136543402813
1712776158.1393647,48.862279633776716
1712776158.1910894,54.50733859110831
1712776158.2370949,53.60561443244972
1712776158.2849429,59.583499534230356
1712776158.3318691,55.189558165599635
1712776158.3744924,59.38209659535141
1712776158.4252765,51.574618623043946
1712776158.472549,47.757974985942106
1712776158.5200777,55.195020945827295
1712776158.5640566,63.64533109738532
1712776158.612778,69.40335486972108
1712776158.6626124,74.2058052658895
1712776158.7102282,79.23179774720185
1712776158.7602336,70.35637778928259
1712776158.8073125,70.75787748268736
1712776158.8549504,67.5689592861603
1712776158.8968565,71.22421882594415
1712776158.942614,75.67928375052978
1712776158.9896169,76.10649482055996
1712776159.0353298,83.21533087476655
1712776159.085592,85.04190826981016
1712776159.1349406,79.5282039133904
1712776159.183538,78.2980701551972
1712776159.229822,79.36697109565094
1712776159.2796915,74.25920445594214
1712776159.3264627,75.94868698814881
1712776159.3739293,63.41028638798784
1712776159.4190073,65.33802603269118
1712776159.4674478,60.166592356141535
1712776159.5128942,67.42120920261905
1712776159.5620697,76.089103833314
1712776159.6127477,79.11406649870935
1712776159.657013,88.58668080150869
1712776159.7051067,82.83834437190876
1712776159.754443,85.0354566789621
1712776159.805992,81.80626041766966
1712776159.852289,80.00945691891631
1712776159.9020262,79.34518455769808
1712776159.9499671,84.04954322978945
1712776159.9957845,93.63342472925443
1712776160.0463538,91.14466237561071
1712776160.09573,93.49281756587378
1712776160.1434894,101.8588025443056
1712776160.1952124,100.63160909880185
1712776160.2418664,90.53152328762285
1712776160.2901134,95.4246203233412
1712776160.3365202,85.77931527001535
1712776160.3830194,81.41624298690988
1712776160.4289083,84.46543375335331
1712776160.477661,81.65640925372098
1712776160.5283544,83.01836719504155
1712776160.5746233,87.29345764935283
1712776160.618379,88.12441889425439
1712776160.661851,85.95287275285543
1712776160.7038293,91.78364907552066
1712776160.751518,81.99090519508952
1712776160.80041,73.25712733087006
1712776160.8512356,76.11782821278861
1712776160.895054,70.05047319581419
1712776160.94201,70.49882912857905
1712776160.9892097,69.40641668369527
1712776161.036129,70.93466378508266
1712776161.0786514,65.72213345169267
1712776161.1258736,57.850515010162496
1712776161.1735396,57.34741395985685
1712776161.2163973,57.15198130459899
1712776161.2636597,47.81964125062248
1712776161.3113146,45.33314496039203
1712776161.3571277,37.54590868017272
1712776161.398079,32.546596299716946
1712776161.4446998,24.08731792748042
1712776161.4946291,19.643443295591513
1712776161.5364418,28.49458007995431
1712776161.5848074,27.316357686410004
1712776161.6317334,35.907528424724696
1712776161.678281,35.585724459513806
1712776161.7242117,30.189712562681795
1712776161.774747,23.927122035096396
1712776161.8206522,20.74012289231458
1712776161.8734355,19.557333356647394
1712776161.9215763,23.36607182776186
1712776161.9674132,25.828002104550386
1712776162.0155687,31.12708706623222
1712776162.0683177,31.22260078488903
1712776162.1186783,30.115478774861646
1712776162.1647575,35.54403954591622
1712776162.215382,33.33767902401238
1712776162.2599232,30.423464055867132
1712776162.3104916,18.927358332925586
1712776162.3565698,19.549162978825162
1712776162.402469,13.825245596064079
1712776162.4518983,7.5625476214140015
1712776162.4958282,12.592012456039068
1712776162.5436356,18.798636632118797
1712776162.59356,18.697431874552848
1712776162.6432354,22.932889237546533
1712776162.6907244,18.600815738221748
1712776162.7379758,22.271297235587483
1712776162.7854047,17.252155128688884
1712776162.8370845,6.849652141495762
1712776162.8851755,12.692445389688189
1712776162.931779,7.42657228760933
1712776162.9805408,8.951439948612816
1712776163.0278912,12.497611449837319
1712776163.074095,9.079212187674688
1712776163.1209602,10.975265770266864
1712776163.165763,6.354358279259126
1712776163.2075014,5.388536493262653
1712776163.2555008,4.650510714982628
1712776163.3040855,2.7946069704927226
1712776163.353313,-1.895430475278772
1712776163.4008627,-10.469843875971211
1712776163.4468048,-14.476620303738164
1712776163.4935508,-13.24678732086479
1712776163.536814,-0.3531951994990976
1712776163.596129,8.11013943402251
1712776163.6462495,12.916823976689894
1712776163.6930578,18.63992616976519
1712776163.7344198,15.770437465292478
1712776163.7830966,9.984288747315572
1712776163.8327472,17.702629260929946
1712776163.879421,20.1855728482767
1712776163.9293885,22.95654733798672
1712776163.977778,29.866755750492885
1712776164.0266857,36.03248102648015
1712776164.0705173,42.13551266448995
1712776164.1215825,43.12525037703604
1712776164.1701326,43.951324337503664
1712776164.2230604,45.5907148657266
1712776164.2670434,42.204150107299945
1712776164.3101113,43.79026599126095
1712776164.3638434,48.55483354164892
1712776164.4109094,39.63433972251733
1712776164.4620476,36.69265358368445
1712776164.5076723,41.373711390722505
1712776164.5551276,54.102816794906744
1712776164.6040645,59.44537569656764
1712776164.652957,69.40181003882054
1712776164.7005916,66.78315137293532
1712776164.7487183,67.2843602291016
1712776164.794621,66.17840880981088
1712776164.8435202,63.92538452127684
1712776164.892399,61.91830436348968
1712776164.9403915,63.359461109931395
1712776164.985414,63.27320116352894
1712776165.0353274,71.25325633460885
1712776165.0830495,71.43683026140337
1712776165.1326911,70.85669511541815
1712776165.1821685,66.64309631737261
1712776165.2323701,71.28838382016178
1712776165.2805734,62.07272392742514
1712776165.3244858,64.45343305851728
1712776165.3688817,60.23157561953721
1712776165.4108973,61.46968566657668
1712776165.4546196,61.19179394962164
1712776165.5030825,61.67578334310949
1712776165.5483532,68.94872580587959
1712776165.6003587,70.17668375169501
1712776165.649094,77.78067832379848
1712776165.694512,85.76243268831558
1712776165.7398875,84.7596281245871
1712776165.788683,77.87110638493719
1712776165.838254,77.47949064335131
1712776165.8896143,76.11530073747721
1712776165.9306812,84.92976822211983
1712776165.9882529,90.82254276432418
1712776166.0404952,97.98219345574712
1712776166.0929747,100.37704661583855
1712776166.1457539,99.65681881697782
1712776166.1967516,101.93744575078027
1712776166.2441783,99.64075433734209
1712776166.293673,94.11884627557293
1712776166.3324487,95.59380523687452
1712776166.3856344,93.27042420839076
1712776166.4341536,83.95766340825705
1712776166.4846587,83.55427107463646
1712776166.5278578,85.28828825295656
1712776166.5785024,91.41246388213108
1712776166.6273677,98.5386108574192
1712776166.6702552,98.27635777172239
1712776166.7232234,88.50656218514993
1712776166.7697816,90.69848911483135
1712776166.8206096,77.8411622196526
1712776166.8633022,76.59017401616025
1712776166.9122417,80.45460177316635
1712776166.956431,76.6886234010711
1712776166.9959433,76.877939200848
1712776167.0449326,71.36454604480768
1712776167.0899048,73.63710387221448
1712776167.139216,70.1540368516201
1712776167.177749,66.47507040042366
1712776167.2341075,59.82039214950862
1712776167.2698298,56.51531025100951
1712776167.306115,54.14064247064701
1712776167.3616385,47.51621584208062
1712776167.399061,42.229550574145044
1712776167.4493725,37.12877956519489
1712776167.4997175,34.14639205003593
1712776167.5412843,36.59422800130571
1712776167.5940025,41.40005838971024
1712776167.6420922,43.693758832407376
1712776167.691559,44.93181155844076
1712776167.7432604,37.198250815158545
1712776167.7944329,41.41261777401899
1712776167.8453188,32.48599766210444
1712776167.8848069,32.69159119823357
1712776167.9361157,31.307624257708017
1712776167.9869108,42.36051150988328
1712776168.0278738,35.459124356688584
1712776168.0785136,38.80713364820776
1712776168.1274893,47.09625389859182
1712776168.1722002,38.43176810327649
1712776168.2138827,38.98008144175126
1712776168.2728012,37.766343615841514
1712776168.3086014,32.382069167533686
1712776168.3700135,31.366098169733426
1712776168.4085615,18.440619521548008
1712776168.4575486,22.02988946309182
1712776168.5085096,20.10530160105483
1712776168.5565872,23.422270622687826
1712776168.608814,30.316660805755674
1712776168.657707,29.92499126959255
1712776168.7087526,30.400838583379162
1712776168.7594159,16.64425224928082
1712776168.8067126,15.47111151693632
1712776168.8564303,10.314999746767556
1712776168.9046857,6.096465982602644
1712776168.9423125,8.617144373236764
1712776169.002521,15.369373380010535
1712776169.0392528,16.858722964984388
1712776169.0885289,10.677373795536468
1712776169.140876,7.610272021357496
1712776169.1887965,10.151878856022922
1712776169.2383206,0.0719192363471759
1712776169.2834184,-2.2411616942973316
1712776169.337681,-4.889254458781205
1712776169.371428,-4.509575549924345
1712776169.4272869,-15.331328984845701
1712776169.47282,-14.721292352166133
1712776169.5246878,-10.505581440473101
1712776169.5736187,-3.6285473962212595
1712776169.6241446,3.6528829905709
1712776169.6732318,12.184780831754745
1712776169.7243638,8.435112432253659
1712776169.7709272,7.713261419088164
1712776169.8195858,3.351922505848032
1712776169.8589456,3.2069169591978834
1712776169.9213226,6.725197428912588
1712776169.9668381,14.689306471592095
1712776170.0057282,24.754536905443565
1712776170.0537386,27.419004733367743
1712776170.1048822,32.13433957108208
1712776170.148002,38.38698867446665
1712776170.2053044,39.043043470785946
1712776170.2568762,29.69535229560237
1712776170.2955313,34.93200224643738
1712776170.34456,33.221676108486406
1712776170.4018774,33.4938248242558
1712776170.4448078,25.650416020144437
1712776170.495686,26.90524357035929
1712776170.5367384,33.518202078418355
1712776170.5875344,43.965828407148976
1712776170.6275947,52.70860970092616
1712776170.678642,52.58332467742969
1712776170.7267492,50.22498399279438
1712776170.770589,52.90345671761829
1712776170.8215084,49.6034167486708
1712776170.8594935,47.28973679275205
1712776170.9188342,55.42499821722693
1712776170.953781,51.371578700465264
1712776171.0061328,53.746736218543376
1712776171.0535069,60.70707415721752
1712776171.101405,65.81379517897346
1712776171.1396048,63.88293973252159
1712776171.1866055,63.03220555959138
1712776171.2385356,61.12562604291128
1712776171.285982,60.05838782549447
1712776171.345283,55.14172176795816
1712776171.3876064,49.08068398211675
1712776171.4397545,51.97919697864567
1712776171.4858434,47.32725078337299
1712776171.5355544,54.1507055921326
1712776171.585655,64.04352143375131
1712776171.636102,72.88971993321496
1712776171.685657,74.80875358811609
1712776171.7345629,72.33560928907748
1712776171.7842941,70.1897460071304
1712776171.8334157,75.22068701964056
1712776171.87887,77.89326007726163
1712776171.9282715,80.70311814107752
1712776171.9758127,86.31291386007108
1712776172.0266976,86.18666961870005
1712776172.0727332,97.60603478256586
1712776172.1195068,94.60871423959519
1712776172.1698182,94.91542709878179
1712776172.2126143,97.57360274461108
1712776172.2662096,92.74200297788462
1712776172.3133771,93.79998109701064
1712776172.3617465,95.33065093832039
1712776172.4031062,93.59594447792827
1712776172.4506223,82.47018430633395
1712776172.495103,88.1767970753069
1712776172.5370827,91.63929929409164
1712776172.5834465,93.73641614339678
1712776172.6330838,101.57675155990033
1712776172.6753416,100.7578274417452
1712776172.7221122,92.98828258989256
1712776172.7703123,91.58708084597788
1712776172.81512,93.38925122899468
1712776172.8565447,85.81961760291838
1712776172.9039807,81.7608878217639
1712776172.9543939,83.00935742624722
1712776173.0012457,84.92295915210185
1712776173.0443106,88.39178666738577
1712776173.0924697,79.37710831941499
1712776173.1424515,85.39385570530486
1712776173.18842,73.03220023790828
1712776173.235778,75.30752691345971
1712776173.2862036,68.20646515736283
1712776173.336482,63.645198438936916
1712776173.3867667,58.88456837719258
1712776173.4348738,48.658526785267966
1712776173.4793727,40.43048283032654
1712776173.522155,47.26359231857027
1712776173.5679646,48.55303924134128
1712776173.6109586,55.109540813041534
1712776173.6546977,59.608913666505174
1712776173.6991196,53.4447465091111
1712776173.7475548,51.611033885141815
1712776173.79396,53.3691991319878
1712776173.840155,42.83109485680083
1712776173.8871286,47.47857594414797
1712776173.9364753,41.783042827301
1712776173.9836726,50.093574921697005
1712776174.0316212,53.16551396007465
1712776174.0754833,49.52764228345417
1712776174.1319773,53.027549439053516
1712776174.1764903,49.71379269898519
1712776174.225116,53.43400000836243
1712776174.2710574,40.45437952228602
1712776174.3208082,36.73879659688461
1712776174.3641589,40.9434398438452
1712776174.4123452,34.023648831690906
1712776174.4560866,27.953525992735294
1712776174.5066705,24.493592785614254
1712776174.5506089,28.774409918578012
1712776174.593533,33.91373284374778
1712776174.6413095,33.26851515400723
1712776174.6880238,32.48020898060838
1712776174.734837,35.78370442661329
1712776174.7821162,25.116747983229274
1712776174.8317912,24.474923769901366
1712776174.87753,13.650829214829912
1712776174.926614,14.156876307195999
1712776174.9757314,15.554309255727224
1712776175.0245543,20.11739769139806
1712776175.0745687,19.70535965035607
1712776175.1217136,17.933242571814695
1712776175.1698973,16.985927048106664
1712776175.2160428,12.245004931830637
1712776175.265339,5.815398711259804
1712776175.3126082,-0.9385160724491906
1712776175.3609173,-8.132493612393983
1712776175.4077473,-9.018204837461326
1712776175.4551516,-19.132681590077524
1712776175.502211,-15.289383877069083
1712776175.548921,-8.271422430230274
1712776175.5988004,2.2808284140601263
1712776175.642886,4.442728614042064
1712776175.6896427,2.6987046563347405
1712776175.738186,2.6152583089693673
1712776175.7879035,3.240834227486384
1712776175.8338397,-0.7450417345780007
1712776175.8830981,2.559644221484963
1712776175.9322753,6.167551262860595
1712776175.9769595,11.614691320931549
1712776176.0212133,11.7598594352883
1712776176.0652435,16.181107574797913
1712776176.1116755,27.496748331124696
1712776176.1583762,25.61969606360779
1712776176.2080562,27.490233784742927
1712776176.261514,22.400401884669368
1712776176.3116984,22.473457465385103
1712776176.3591588,25.759586513740906
1712776176.4048557,21.364560469226227
1712776176.453879,24.846043467875482
1712776176.5044048,17.048449494527755
1712776176.5501828,29.49431623242826
1712776176.5935414,38.64405548313701
1712776176.6437979,46.384968441790086
1712776176.6908503,47.52293894996112
1712776176.7355273,45.545985349514915
1712776176.7811933,40.292608337611185
1712776176.830251,39.844816347447264
1712776176.8774154,41.23053139994789
1712776176.9247541,39.516927364990764
1712776176.9695203,38.51427310581357
1712776177.0193608,49.91111141029016
1712776177.060068,46.944985278925145
1712776177.1062796,51.25425589350514
1712776177.1593034,55.57057142201127
1712776177.2062023,54.54472377093646
1712776177.2564275,45.450383436182214
1712776177.3043659,40.9872342920732
1712776177.353634,45.01634467907104
1712776177.4024131,36.5808132293347
1712776177.446598,40.0466172443337
1712776177.4897692,37.32063056415951
1712776177.536744,48.682901504842235
1712776177.580145,50.81633802752581
1712776177.6295054,65.0162009486536
1712776177.670678,68.46830568758487
1712776177.7248929,61.97229507445316
1712776177.7725446,62.50845917241271
1712776177.8213508,65.12052305794157
1712776177.871809,71.44153313843071
1712776177.9165769,72.93965859197978
1712776177.959182,78.63900300737622
1712776178.0054302,84.22785146666483
1712776178.0468998,83.61941858310988
1712776178.0919664,90.49327190385969
1712776178.140022,94.22781840045852
1712776178.1820486,96.69347436196726
1712776178.227335,94.99945455751663
1712776178.2798772,90.44650966100025
1712776178.3263185,87.00224698734371
1712776178.3639207,91.34526793008716
1712776178.4130166,89.05756015075728
1712776178.4638848,83.05072839044152
1712776178.5129192,88.53013398304957
1712776178.5595713,89.8928981681095
1712776178.607283,97.98847524894805
1712776178.6482868,101.33465959360394
1712776178.698148,105.33677186235403
1712776178.7371979,101.26577675746148
1712776178.790134,93.68234139774792
1712776178.8322904,86.34166469215783
1712776178.8755357,87.28634818078203
1712776178.92199,83.83223766991279
1712776178.9734328,83.51122731170057
1712776179.0178633,90.4614672773571
1712776179.0682125,88.56441011203205
1712776179.1104476,86.06156294634555
1712776179.1484964,85.7342988332187
1712776179.1992884,77.28115702034417
1712776179.2434523,80.41901085174645
1712776179.2907069,71.07369870390353
1712776179.3335214,72.27693920405206
1712776179.3857856,59.3067256675696
1712776179.4340088,56.69864770392439
1712776179.4788332,57.33908622366001
1712776179.5293381,55.630287366558974
1712776179.569727,58.558849835405695
1712776179.6187432,69.75811726877922
1712776179.672571,71.49063037727547
1712776179.7210333,64.28224158887812
1712776179.772382,60.416101989983616
1712776179.81664,57.096320961603084
1712776179.8668604,52.91757687439971
1712776179.9059093,59.079355650389395
1712776179.9618564,59.058101182718886
1712776180.0085394,57.26327781762047
1712776180.0595548,60.1256215169287
1712776180.1039896,63.38718096522789
1712776180.1537979,60.45117439485966
1712776180.1934853,57.170618002872025
1712776180.244898,57.42322741085129
1712776180.2947161,55.43299005155925
1712776180.344022,54.59562442787058
1712776180.387735,47.27971140354015
1712776180.432144,36.96260939602247
1712776180.4628928,36.60577769550599
1712776180.5125353,40.00454376215954
1712776180.5551686,37.42893401778284
1712776180.611177,46.695590908219685
1712776180.6611297,45.54998583604745
1712776180.696825,41.52548732247297
1712776180.7534783,42.99543025683711
1712776180.8011596,34.186780360923485
1712776180.850876,27.753173725462798
1712776180.89426,27.017876536746908
1712776180.947022,27.262029635400115
1712776180.979991,27.076697868016762
1712776181.0270407,18.9725523213902
1712776181.0816057,27.412708729833277
1712776181.1282947,17.384172032499965
1712776181.173194,19.48404055718
1712776181.2147539,12.578359504555381
1712776181.2533839,9.38575193250815
1712776181.304296,5.141531627738656
1712776181.3470664,0.8293567895042493
1712776181.3881855,-8.062429784988474
1712776181.4376788,-8.804560634229013
1712776181.4813926,-12.037001527932652
1712776181.5208986,-14.30767138853483
1712776181.5608675,-8.410057798461434
1712776181.6209483,8.079721928907917
1712776181.6635158,7.0945550172566545
1712776181.7168374,4.124379113760284
1712776181.767001,5.369061178065755
1712776181.8188248,5.162194184208358
1712776181.8675916,0.5315544185382022
1712776181.9099658,6.917658678229224
1712776181.962295,6.737265920699894
1712776182.0183127,9.269549625259739
1712776182.0600748,17.35516806394893
1712776182.1113725,17.250265335761792
1712776182.1658702,25.942898127057028
1712776182.2161121,22.763851840461562
1712776182.2693353,22.921115647814872
1712776182.3178003,16.75205985564713
1712776182.3644385,13.094639482883757
1712776182.410469,17.969581360506886
1712776182.4570806,11.659129122465064
1712776182.5035174,17.773491743728705
1712776182.5481114,16.967877232184797
1712776182.5917273,27.395183688006384
1712776182.6388428,33.5393454222824
1712776182.691627,31.825305756331865
1712776182.7374964,31.107025077073693
1712776182.7874699,28.578521939335346
1712776182.8373263,30.46340705946866
1712776182.8839066,26.280651639953206
1712776182.9299269,33.55989468731334
1712776182.981076,32.00291758911503
1712776183.0246768,37.88622232151514
1712776183.063707,42.16244478893153
1712776183.11014,36.69896703429712
1712776183.1530697,35.32522757062277
1712776183.2016518,42.560857721897
1712776183.2482543,39.15021603224368
1712776183.2954066,38.86842709316457
1712776183.3455493,28.061842483385494
1712776183.3940697,32.655834098753154
1712776183.4387636,26.759560497039608
1712776183.4834573,26.272165665027174
1712776183.5294418,30.11690671319682
1712776183.5755446,38.23600818438292
1712776183.624057,52.73347862281154
1712776183.6705425,56.73245069562949
1712776183.71494,52.45646501267961
1712776183.7592905,58.960982595525515
1712776183.8087523,52.18018520743386
1712776183.8582764,55.05409638213564
1712776183.900874,63.27223321331849
1712776183.9455976,60.77841230907138
1712776183.996444,72.01302770263548
1712776184.0428221,73.8881929870539
1712776184.0896976,80.47666107136361
1712776184.134021,84.54141241006887
1712776184.1809175,90.95332178578911
1712776184.2263098,90.26421342237445
1712776184.2763357,88.321498919369
1712776184.3243015,88.57922023619268
1712776184.3758485,79.28920058077692
1712776184.4228137,79.683472404249
1712776184.470523,76.42033403670808
1712776184.5129642,78.29474837798988
1712776184.5578227,84.69898958132067
1712776184.6050956,96.83222072910337
1712776184.6509514,96.16819174176074
1712776184.6952286,99.222072174561
1712776184.7448356,98.50917807519285
1712776184.7907708,91.18067035911137
1712776184.837911,87.07659979396647
1712776184.8867657,87.86118497336811
1712776184.934625,86.76997263514392
1712776184.9816234,92.48763628811203
1712776185.0250094,89.78500074086557
1712776185.0656638,87.08813949842259
1712776185.1111972,86.2880223705767
1712776185.15316,88.81170429081116
1712776185.2005978,84.11763040056303
1712776185.2426293,77.41934706863879
1712776185.2885196,78.94963346078924
1712776185.3357754,77.19886166890244
1712776185.3796382,72.22631321296916
1712776185.4257839,67.98876054405778
1712776185.4695313,62.364069265696386
1712776185.5139697,59.90110389071346
1712776185.5600195,70.86112959334206
1712776185.6037064,74.4701122679774
1712776185.6528213,77.65494309770456
1712776185.6980631,79.03020527564837
1712776185.744018,74.11168176534976
1712776185.7898908,72.7005430900773
1712776185.8370988,67.7280937773844
1712776185.881641,65.01393558497551
1712776185.9331725,69.07088567668546
1712776185.9822803,67.59740823370494
1712776186.0251613,74.25187550631223
1712776186.0736938,72.25493792454117
1712776186.1165214,80.15290151288642
1712776186.160333,71.20938790414499
1712776186.2090585,75.62759305673201
1712776186.2556098,67.87221786683872
1712776186.306994,67.2630900068879
1712776186.3568468,62.11658798885345
1712776186.4044802,59.53444117119254
1712776186.451425,49.45153279617387
1712776186.4983947,43.370086904215135
1712776186.5412917,50.953540147492355
1712776186.5863419,51.96971270672071
1712776186.632662,60.09098339165929
1712776186.6729531,59.34047200496507
1712776186.7236316,53.97999985069379
1712776186.7738633,48.836960413507576
1712776186.8266358,38.53474006381248
1712776186.8784237,32.98169472856105
1712776186.9222794,37.4219046982619
1712776186.964693,37.63957777403372
1712776187.0131106,31.242364804135676
1712776187.0617456,34.924700378032064
1712776187.110092,35.202555809765016
1712776187.1563456,29.690098744883645
1712776187.202229,22.66867616854521
1712776187.246741,20.620265840484393
1712776187.2928476,10.078425072227095
1712776187.3400137,7.365043490446954
1712776187.3855984,0.2965862777693715
1712776187.4323606,-0.6336882145381253
1712776187.4798222,-4.671188978210363
1712776187.5217812,-1.3435447468035573
1712776187.571624,3.1034060917628192
1712776187.6218345,3.1132498737319647
1712776187.6669745,5.39676707423593
1712776187.713867,8.696582144223115
1712776187.761557,8.120490189403007
1712776187.810972,5.701719048892511
1712776187.8611138,-0.1701406467427553
1712776187.9049299,2.157187874796764
1712776187.954754,3.649211830743452
1712776188.0046911,13.577830762123389
1712776188.0519578,11.101824670861006
1712776188.1046464,18.665601642134675
1712776188.1498928,20.188814206460528
1712776188.195796,22.671052330019492
1712776188.2391396,19.744239386829612
1712776188.287043,18.7857431533429
1712776188.332053,16.979499110356038
1712776188.38049,8.984426826487308
1712776188.42687,8.497331994247983
1712776188.4782734,10.534986161505877
1712776188.5242014,6.625209392160263
1712776188.5692575,20.051347852874265
1712776188.6138375,29.074482366618653
1712776188.6590436,29.245819809625115
1712776188.7107239,29.154018623722095
1712776188.7567847,27.45166476508462
1712776188.8073585,18.42158521230804
1712776188.857317,16.64466310944862
1712776188.9052875,23.97733439312042
1712776188.9497797,25.584055893444415
1712776188.9970922,24.676275414704648
1712776189.0414875,25.554902807048045
1712776189.0880044,29.694378246036433
1712776189.1361337,32.812738398522626
1712776189.1793995,27.309922816121738
1712776189.2243617,24.11187277015143
1712776189.269389,23.008253152551084
1712776189.313337,19.50534069716629
1712776189.3644695,16.190292220157204
1712776189.4115355,22.532629512014665
1712776189.461558,12.343163749691374
1712776189.5070434,17.274967460782342
1712776189.553515,27.297247673421904
1712776189.6022768,33.10909890839824
1712776189.645958,39.67244365648748
1712776189.6922078,49.242704884455705
1712776189.7431417,40.50222771147762
1712776189.787456,48.50152414407504
1712776189.8371909,43.53196853345012
1712776189.8803518,49.30979867297644
1712776189.9332347,55.92912842892713
1712776189.979765,61.210827251734706
1712776190.0265062,66.46676002380254
1712776190.0713327,72.52916494071572
1712776190.1152291,70.54254259506904
1712776190.1625173,80.42979494614409
1712776190.2091286,74.73548094970589
1712776190.2536228,73.32166313552179
1712776190.3011796,78.28849928549319
1712776190.3576653,75.26017606590509
1712776190.4022703,74.2819441625376
1712776190.451463,73.03453512578596
1712776190.5024555,73.73837084212167
1712776190.5472095,81.12223182703329
1712776190.593942,87.82167716665448
1712776190.6403651,94.91152099868992
1712776190.6874194,90.5499666728396
1712776190.7330651,97.17429993969401
1712776190.7784417,94.56517301735002
1712776190.8280232,87.87703726700659
1712776190.8742855,88.17036757724422
1712776190.9228797,88.72951119845332
1712776190.9688144,86.11431421591898
1712776191.0171554,87.21978408782769
1712776191.0604327,88.76691643950967
1712776191.1030707,91.61645758270974
1712776191.1468766,91.02126734050329
1712776191.1939433,84.95917629522403
1712776191.2392561,86.229854123119
1712776191.288932,77.24594038036682
1712776191.334274,75.18999080506306
1712776191.3838518,69.40709188800774
1712776191.4312217,66.66953088689368
1712776191.4805646,58.65687240302811
1712776191.526567,64.80981623336834
1712776191.5768273,71.7802822237957
1712776191.6250467,76.82894265428321
1712776191.6705515,83.82797166984629
1712776191.7181902,76.21453979705285
1712776191.7640412,81.18432697894897
1712776191.812121,77.86687293268285
1712776191.861152,75.41746156117313
1712776191.91397,78.42085177240956
1712776191.9600115,73.30477155832382
1712776192.0103173,82.52291192526904
1712776192.0511167,83.0129839204371
1712776192.0979264,81.7487204362477
1712776192.1445553,87.43402724605832
1712776192.2013345,78.71400827075853
1712776192.247929,76.26049545666527
1712776192.3001618,72.47907360841869
1712776192.351364,67.69437804655165
1712776192.397283,68.43298002321009
1712776192.4451385,65.52519417944791
1712776192.49469,56.63908122333122
1712776192.5422761,60.422902632149466
1712776192.5902615,66.08194087879866
1712776192.637243,72.42533149515485
1712776192.6812804,70.28277830340738
1712776192.7274163,63.75575362891362
1712776192.7733867,57.55411855967727
1712776192.822642,55.1225436228608
1712776192.8711352,45.882185153606336
1712776192.9252055,46.912594480782154
1712776192.973166,47.95951643650121
1712776193.022795,42.62518563930115
1712776193.0707605,42.761586984030515
1712776193.1195986,41.445243478493126
1712776193.1668773,40.59669574803884
1712776193.2164516,27.873656267168784
1712776193.2644236,29.98085386445734
1712776193.3107398,19.31968370474587
1712776193.3569756,18.73022947001295
1712776193.4039135,11.217982161767226
1712776193.4514213,-0.1611131694681731
1712776193.4989102,0.04097037640151768
1712776193.546393,2.1785333378753204
1712776193.5928833,9.049476564411432
1712776193.640405,15.32044380994623
1712776193.6885395,13.206648660579514
1712776193.7390337,8.750689784918887
1712776193.787162,11.730651650049488
1712776193.8318172,6.193127979910149
1712776193.882147,6.6655949922386455
1712776193.9316895,7.421284722683597
1712776193.9793234,11.59048069122143
1712776194.0251315,14.96998165681492
1712776194.0690536,13.915600916122328
1712776194.113953,20.298190592915144
1712776194.157288,22.931784428749594
1712776194.2021468,15.012228871617921
1712776194.2445803,18.43076953205682
1712776194.2895222,16.390302607813382
1712776194.335591,12.698333371479979
1712776194.3866656,8.767548610554538
1712776194.4345202,4.8494306591237
1712776194.4841874,3.3588518450855354
1712776194.532471,9.862808957492517
1712776194.5757713,19.499030915999466
1712776194.6187825,26.428130106337516
1712776194.6660979,27.347555886839416
1712776194.7137723,25.602355410880005
1712776194.756573,20.58584520143669
1712776194.8038664,15.54139281099747
1712776194.8476958,10.23170274017154
1712776194.894911,15.108697657422939
1712776194.944895,18.247053546966093
1712776194.9942048,16.36948960953184
1712776195.0440018,17.12008102271883
1712776195.0912836,18.851323977697216
1712776195.1340604,16.789750651752897
1712776195.1798563,15.160097364884347
1712776195.226967,19.05255562847214
1712776195.275377,11.874253076623248
1712776195.319281,15.830013073492315
1712776195.364661,5.919979564705811
1712776195.409285,2.776383092830079
1712776195.4569907,9.048245890728591
1712776195.5084329,7.794303637770071
1712776195.5562575,15.927182666297123
1712776195.6003497,27.67842249817475
1712776195.6424112,35.712967804995266
1712776195.6854837,36.54161628731665
1712776195.7302725,37.43415322703187
1712776195.7732325,35.42260341654535
1712776195.8151972,29.790604539325532
1712776195.8595288,39.88549698788391
1712776195.9085846,41.81199691137372
1712776195.955461,40.71676502277389
1712776196.002711,54.0687819178777
1712776196.0526175,54.52306197607694
1712776196.0966332,63.95213791908916
1712776196.1448483,67.74275494004088
1712776196.1878185,64.58875876791059
1712776196.232536,67.8166946136702
1712776196.281998,69.94743734389321
1712776196.3267636,69.25409440967682
1712776196.376759,67.64856270553481
1712776196.4226582,63.98245248727227
1712776196.4673223,63.70933295269937
1712776196.5143337,69.14409865994956
1712776196.5621362,70.39234203648356
1712776196.608758,81.55028098845206
1712776196.6553166,84.95502167547367
1712776196.703195,91.38392003410574
1712776196.7491899,80.37724111163128
1712776196.7931283,84.35228195083529
1712776196.838276,76.57579282512954
1712776196.884856,81.45495220176235
1712776196.9327154,84.69371631389264
1712776196.9809742,78.49876438902074
1712776197.0298913,88.58736447704139
1712776197.0756483,87.6992175583016
1712776197.1216857,86.34708470028444
1712776197.165637,82.4386280567877
1712776197.213292,88.02089275796659
1712776197.259326,78.42002019735465
1712776197.303001,74.50302574762216
1712776197.3500953,78.57515465722314
1712776197.3939052,68.67285744976223
1712776197.4410443,64.43991494131711
1712776197.4918199,67.77247644528411
1712776197.5416107,72.84112386862937
1712776197.5902226,78.55397343792028
1712776197.6427946,81.59938601566748
1712776197.6951947,82.55591851326842
1712776197.7482603,77.96826992196875
1712776197.8013902,81.75312545622016
1712776197.854437,80.31764234536742
1712776197.9065146,80.35037700009094
1712776197.9534454,81.51807668553579
1712776198.005634,86.23244028956117
1712776198.0538924,93.04558445014088
1712776198.0998821,91.79131814525365
1712776198.1459305,93.3177077517273
1712776198.192625,94.45916078093073
1712776198.2429383,88.99028881544191
1712776198.2870688,80.04897125549842
1712776198.3329444,80.18043409095947
1712776198.3840938,79.99824871078548
1712776198.4413888,70.88698329091628
1712776198.4904754,70.16689501865407
1712776198.5428765,74.00953827491793
1712776198.5946655,76.32784720962097
1712776198.6468134,77.11439066850429
1712776198.6980045,80.49847172510775
1712776198.7488027,69.75525430710475
1712776198.800136,68.21685607671793
1712776198.8503315,59.00587479085666
1712776198.9019563,60.915856861315056
1712776198.9547112,54.66845530046435
1712776199.0031831,53.57150914352064
1712776199.0544705,56.94145679779709
1712776199.105472,54.879025243440275
1712776199.1519494,50.33541177110287
1712776199.1996467,39.844210458582985
1712776199.2590623,31.878509829504097
1712776199.3114605,32.92772506010058
1712776199.361423,23.40995894700387
